0,12483
1,12318
2,364
3,12381
4,375
5,82
6,12316
7,376
8,367
9,366
10,12357
11,3368
12,77
13,3382
14,200
15,28177
16,79
17,3373
18,363
19,3071
20,12308
21,201
22,202
23,75
24,3094
25,342
26,3376
27,320
28,12315
29,371
30,359
31,3021
32,3566
33,13399
34,12358
35,3618
36,345
37,346
38,3042
39,38
40,51
41,12391
42,3602
43,16
44,198
45,368
46,3052
47,3054
48,12375
49,18
50,3481
51,12383
52,76
53,370
54,3358
55,373
56,3304
57,3307
58,321
59,6831
60,12335
61,65
62,53
63,3061
64,28157
65,12475
66,3057
67,15829
68,15837
69,3088
70,15732
71,1
72,19
73,12452
74,12455
75,3001
76,3198
77,27867
78,20
79,3201
80,3529
81,6903
82,68
83,15773
84,16345
85,3191
86,12464
87,3190
88,15631
89,74
90,3337
91,12343
92,322
93,323
94,324
95,12346
96,312
97,12336
98,0
99,73
100,352
101,12303
102,15740
103,314
104,12323
105,3108
106,72
107,12325
108,316
109,12326
110,319
111,28055
112,64
113,3437
114,15735
115,3244
116,3580
117,13430
118,6878
119,26018
120,3107
121,52
122,9990
123,6895
124,57
125,63
126,192
127,175
128,6858
129,187
130,80
131,3539
132,66
133,170
134,147
135,69
136,137
137,203
138,9993
139,236
140,14
141,248
142,21
143,61
144,247
145,3096
146,60
147,313
148,0
149,9967
150,2977
151,1
152,252
153,10000
154,9987
155,7123
156,2993
157,253
158,2995
159,22
160,7074
161,2
162,3
163,255
164,3051
165,3102
166,9805
167,7092
168,54
169,3103
170,55
171,6874
172,56
173,254
174,15672
175,13564
176,4
177,39
178,49
179,42
180,9932
181,9936
182,43
183,11
184,3250
185,3642
186,47
187,15688
188,3112
189,28076
190,3625
191,15
192,3237
193,30
194,31
195,50
196,12362
197,3673
198,32
199,34
200,311
201,349
202,9940
203,3109
204,9945
205,9950
206,3121
207,5
208,24
209,3556
210,194
211,13
212,6
213,7
214,8
215,12
216,10045
217,10
218,9925
219,9
220,9901
221,3486
222,23
223,9904
224,62
225,40
226,196
227,3294
228,48
229,3123
230,9905
231,9927
232,25934
233,6980
234,15651
235,15746
236,10
237,3522
238,3012
239,15962
240,27855
241,15971
242,35
243,27848
244,12409
245,12400
246,16022
247,195
248,3500
249,3516
250,36
251,12403
252,3485
253,11
254,37
255,3040
256,46
257,12407
258,3513
259,15998
260,3031
261,3279
262,12
263,3278
264,13
265,14
266,15
267,16
268,17
269,18
270,3049
271,19
272,20
273,21
274,15982
275,2997
276,22
277,23
278,15977
279,71
280,24
281,25
282,27
283,26
284,15988
285,27
286,15972
287,15956
288,28
289,15954
290,29
291,15973
292,59
293,16024
294,15874
295,27887
296,33
297,15848
298,3668
299,30
300,15694
301,15862
302,3632
303,31
304,3672
305,348
306,3661
307,3663
308,15858
309,197
310,12129
311,3622
312,3635
313,3627
314,3628
315,32
316,33
317,3631
318,15907
319,34
320,3648
321,3092
322,3089
323,15863
324,44
325,3282
326,2985
327,12422
328,35
329,12398
330,36
331,3284
332,37
333,45
334,38
335,39
336,40
337,2970
338,41
339,42
340,3229
341,16000
342,43
343,44
344,3503
345,45
346,46
347,47
348,27883
349,15867
350,46
351,7117
352,2976
353,58
354,15657
355,15653
356,48
357,49
358,15661
359,27849
360,15
361,15662
362,15674
363,50
364,3236
365,3246
366,3248
367,3249
368,51
369,3064
370,3055
371,3166
372,15666
373,9935
374,3254
375,52
376,53
377,15632
378,16
379,15659
380,3162
381,3202
382,15984
383,54
384,12484
385,67
386,6917
387,6921
388,55
389,15780
390,12487
391,6943
392,26002
393,3562
394,56
395,57
396,58
397,59
398,15793
399,60
400,3174
401,27863
402,3175
403,3147
404,12415
405,3059
406,3214
407,61
408,3115
409,15823
410,3091
411,62
412,63
413,3033
414,78
415,64
416,2972
417,81
418,15720
419,65
420,15719
421,3292
422,66
423,15689
424,15686
425,67
426,3256
427,15702
428,68
429,69
430,3270
431,70
432,15696
433,71
434,3100
435,3106
436,15695
437,3227
438,72
439,73
440,74
441,75
442,76
443,67
444,3023
445,15629
446,3020
447,15627
448,15626
449,3156
450,3151
451,15640
452,3274
453,15676
454,3158
455,3110
456,12321
457,3014
458,77
459,78
460,79
461,15987
462,3081
463,80
464,81
465,15711
466,3046
467,81
468,82
469,3532
470,15658
471,9868
472,6524
473,83
474,84
475,85
476,86
477,87
478,87
479,207
480,88
481,16405
482,89
483,10190
484,90
485,10192
486,6644
487,111
488,112
489,10194
490,6912
491,113
492,114
493,6594
494,115
495,116
496,90
497,6526
498,6587
499,91
500,102
501,10052
502,92
503,93
504,168
505,94
506,95
507,96
508,97
509,16118
510,97
511,10049
512,182
513,190
514,98
515,99
516,100
517,10125
518,101
519,6568
520,16429
521,101
522,103
523,10199
524,102
525,103
526,104
527,10196
528,10208
529,208
530,10138
531,10139
532,3183
533,10171
534,226
535,227
536,6601
537,3187
538,7113
539,105
540,10175
541,26067
542,106
543,16469
544,107
545,3188
546,108
547,26203
548,109
549,9860
550,193
551,110
552,26121
553,6994
554,10161
555,6984
556,10130
557,221
558,219
559,111
560,6614
561,16392
562,112
563,25549
564,113
565,114
566,115
567,210
568,10144
569,116
570,6642
571,117
572,6643
573,213
574,6582
575,7032
576,122
577,10131
578,118
579,6945
580,119
581,120
582,121
583,10132
584,122
585,7024
586,123
587,10061
588,124
589,16072
590,6688
591,6681
592,25499
593,16069
594,7522
595,6678
596,16229
597,125
598,6663
599,10094
600,146
601,16071
602,6800
603,736
604,141
605,10029
606,16088
607,16087
608,142
609,6682
610,16056
611,125
612,737
613,16050
614,10098
615,126
616,127
617,748
618,16268
619,16251
620,16235
621,470
622,7241
623,16221
624,6715
625,744
626,128
627,10074
628,16215
629,10075
630,16047
631,129
632,746
633,6720
634,135
635,130
636,747
637,10109
638,10116
639,131
640,132
641,133
642,134
643,6651
644,135
645,239
646,738
647,25520
648,6763
649,10020
650,16149
651,745
652,760
653,25544
654,16128
655,136
656,153
657,6554
658,138
659,139
660,10023
661,155
662,140
663,137
664,138
665,139
666,140
667,6968
668,160
669,16117
670,6561
671,16126
672,161
673,10018
674,7485
675,10013
676,16152
677,739
678,740
679,141
680,16083
681,6777
682,142
683,143
684,144
685,145
686,16067
687,7491
688,741
689,146
690,6773
691,147
692,3264
693,6811
694,16064
695,16134
696,16062
697,6740
698,16131
699,742
700,16135
701,152
702,16153
703,10016
704,10162
705,148
706,149
707,150
708,151
709,152
710,9970
711,153
712,154
713,155
714,156
715,157
716,6558
717,158
718,159
719,160
720,161
721,162
722,163
723,164
724,165
725,166
726,167
727,6549
728,9971
729,6916
730,168
731,169
732,9811
733,170
734,171
735,172
736,173
737,3149
738,174
739,3152
740,175
741,176
742,177
743,178
744,9996
745,179
746,180
747,181
748,182
749,183
750,3154
751,184
752,185
753,186
754,9991
755,9825
756,3277
757,9876
758,9818
759,187
760,188
761,189
762,15760
763,6859
764,190
765,191
766,63
767,192
768,193
769,194
770,7042
771,10
772,195
773,235
774,237
775,196
776,197
777,198
778,199
779,369
780,3006
781,3273
782,200
783,234
784,233
785,201
786,232
787,229
788,7004
789,230
790,202
791,7023
792,203
793,204
794,205
795,206
796,216
797,207
798,208
799,209
800,210
801,211
802,212
803,213
804,214
805,215
806,216
807,217
808,6914
809,218
810,219
811,220
812,221
813,3179
814,6600
815,222
816,223
817,224
818,225
819,226
820,227
821,6609
822,231
823,228
824,3167
825,229
826,7073
827,242
828,7061
829,257
830,7094
831,6839
832,16302
833,246
834,6875
835,243
836,244
837,230
838,6866
839,3212
840,9875
841,249
842,245
843,16512
844,9884
845,231
846,16322
847,26060
848,241
849,3213
850,232
851,233
852,234
853,7068
854,3176
855,10166
856,9862
857,235
858,236
859,237
860,9844
861,238
862,239
863,240
864,7095
865,9833
866,6950
867,241
868,242
869,256
870,9843
871,9845
872,243
873,244
874,7114
875,9846
876,245
877,9847
878,241
879,7122
880,9834
881,3168
882,16473
883,16466
884,3126
885,7097
886,9974
887,3130
888,3211
889,246
890,16285
891,7111
892,16374
893,9956
894,243
895,3135
896,3133
897,26220
898,16385
899,247
900,248
901,249
902,6584
903,6865
904,3164
905,3140
906,250
907,9999
908,251
909,16290
910,9892
911,16282
912,7109
913,3194
914,252
915,16465
916,9781
917,6922
918,3136
919,16483
920,9821
921,16324
922,253
923,16477
924,242
925,16470
926,16298
927,26041
928,16314
929,6908
930,254
931,255
932,7110
933,6934
934,16279
935,256
936,257
937,3180
938,7006
939,9823
940,10070
941,15923
942,15918
943,13016
944,12522
945,413
946,412
947,329
948,13029
949,13170
950,385
951,277
952,12531
953,4489
954,2754
955,4715
956,12512
957,12510
958,2779
959,13328
960,4493
961,13021
962,1543
963,12515
964,4638
965,13315
966,12516
967,278
968,276
969,12505
970,328
971,13049
972,2953
973,2952
974,285
975,12978
976,12573
977,2945
978,12577
979,286
980,387
981,12619
982,274
983,4497
984,12968
985,13010
986,13047
987,2683
988,275
989,12601
990,2765
991,13042
992,452
993,2967
994,13062
995,2959
996,2873
997,13020
998,12537
999,13339
1000,13289
1001,392
1002,4775
1003,330
1004,4767
1005,384
1006,4644
1007,4653
1008,4515
1009,2829
1010,4651
1011,4630
1012,4632
1013,1540
1014,13374
1015,1542
1016,12726
1017,4596
1018,13373
1019,4640
1020,1545
1021,4663
1022,4572
1023,13349
1024,27171
1025,12678
1026,13377
1027,391
1028,258
1029,13380
1030,12554
1031,4824
1032,4614
1033,2797
1034,12557
1035,388
1036,469
1037,4621
1038,1553
1039,4716
1040,4609
1041,1554
1042,28340
1043,27342
1044,13310
1045,12698
1046,1555
1047,389
1048,27184
1049,12703
1050,1563
1051,258
1052,12576
1053,390
1054,13305
1055,13385
1056,12695
1057,2807
1058,2872
1059,12570
1060,13115
1061,259
1062,267
1063,12950
1064,13109
1065,12937
1066,4531
1067,13079
1068,13692
1069,2776
1070,339
1071,13067
1072,2788
1073,13076
1074,2827
1075,12933
1076,428
1077,13097
1078,268
1079,269
1080,2937
1081,437
1082,2886
1083,13122
1084,13154
1085,2700
1086,266
1087,2824
1088,13121
1089,13683
1090,2920
1091,2631
1092,272
1093,271
1094,13634
1095,12913
1096,12946
1097,12916
1098,12917
1099,13695
1100,12918
1101,270
1102,12919
1103,12892
1104,422
1105,2712
1106,263
1107,259
1108,264
1109,12900
1110,424
1111,13710
1112,2705
1113,12866
1114,265
1115,338
1116,2801
1117,13152
1118,13149
1119,1552
1120,467
1121,281
1122,327
1123,4481
1124,12985
1125,12068
1126,457
1127,2790
1128,12613
1129,449
1130,4477
1131,282
1132,283
1133,12872
1134,27222
1135,386
1136,12964
1137,12587
1138,28354
1139,284
1140,12588
1141,12963
1142,12589
1143,4471
1144,332
1145,466
1146,341
1147,260
1148,2882
1149,4542
1150,13168
1151,13086
1152,12849
1153,340
1154,460
1155,273
1156,2668
1157,461
1158,13145
1159,12854
1160,12855
1161,12874
1162,462
1163,279
1164,280
1165,13126
1166,2742
1167,12842
1168,12881
1169,2694
1170,13066
1171,12884
1172,260
1173,2890
1174,13063
1175,4526
1176,261
1177,262
1178,5145
1179,263
1180,1628
1181,264
1182,14326
1183,265
1184,266
1185,1625
1186,4856
1187,267
1188,11458
1189,5160
1190,1626
1191,1627
1192,5176
1193,2830
1194,1622
1195,1574
1196,1617
1197,268
1198,269
1199,5175
1200,5171
1201,270
1202,11374
1203,4517
1204,271
1205,272
1206,399
1207,5085
1208,11420
1209,1536
1210,5203
1211,11476
1212,14466
1213,1537
1214,1538
1215,11394
1216,11396
1217,1530
1218,11398
1219,4903
1220,1529
1221,11401
1222,11404
1223,5086
1224,13274
1225,287
1226,397
1227,5194
1228,11454
1229,398
1230,5104
1231,1527
1232,1528
1233,5192
1234,1534
1235,1619
1236,273
1237,4837
1238,274
1239,5034
1240,275
1241,1595
1242,4840
1243,4484
1244,290
1245,1631
1246,2755
1247,276
1248,1632
1249,1596
1250,4721
1251,14059
1252,277
1253,3951
1254,12508
1255,3955
1256,4863
1257,4865
1258,4710
1259,1597
1260,278
1261,14631
1262,4844
1263,4845
1264,2758
1265,1630
1266,1635
1267,4896
1268,279
1269,12646
1270,280
1271,1636
1272,1637
1273,281
1274,282
1275,283
1276,2888
1277,288
1278,4909
1279,4934
1280,4935
1281,309
1282,289
1283,1634
1284,284
1285,4923
1286,4888
1287,1629
1288,4792
1289,2669
1290,285
1291,286
1292,1575
1293,12901
1294,11415
1295,14489
1296,307
1297,1579
1298,308
1299,287
1300,1580
1301,12679
1302,4537
1303,12661
1304,1548
1305,4804
1306,288
1307,4591
1308,289
1309,11439
1310,11440
1311,290
1312,4595
1313,1582
1314,1603
1315,291
1316,1556
1317,292
1318,4643
1319,1558
1320,4578
1321,1573
1322,293
1323,12654
1324,294
1325,1546
1326,1549
1327,4576
1328,4554
1329,295
1330,296
1331,297
1332,298
1333,1551
1334,299
1335,4557
1336,1564
1337,1559
1338,4558
1339,300
1340,301
1341,1515
1342,4563
1343,12671
1344,302
1345,12674
1346,303
1347,304
1348,305
1349,12664
1350,306
1351,4494
1352,1568
1353,1541
1354,1431
1355,12699
1356,11421
1357,5108
1358,307
1359,5090
1360,1495
1361,11360
1362,1498
1363,4765
1364,308
1365,1499
1366,11363
1367,309
1368,11369
1369,4809
1370,13249
1371,11388
1372,1501
1373,1508
1374,11409
1375,1531
1376,1566
1377,11412
1378,13228
1379,1567
1380,5057
1381,5055
1382,5054
1383,1520
1384,1434
1385,4580
1386,11426
1387,4581
1388,1428
1389,1589
1390,13356
1391,4812
1392,1584
1393,310
1394,1569
1395,1570
1396,12650
1397,5083
1398,1550
1399,11449
1400,1587
1401,1572
1402,1576
1403,1511
1404,1512
1405,1577
1406,4583
1407,11475
1408,4835
1409,5119
1410,1571
1411,311
1412,335
1413,28274
1414,312
1415,3005
1416,313
1417,362
1418,0
1419,314
1420,13787
1421,3320
1422,13480
1423,344
1424,3314
1425,372
1426,13768
1427,325
1428,315
1429,3321
1430,13762
1431,316
1432,317
1433,3331
1434,28417
1435,318
1436,13743
1437,319
1438,2987
1439,361
1440,2989
1441,360
1442,12101
1443,13509
1444,13506
1445,320
1446,3379
1447,13487
1448,13472
1449,347
1450,13468
1451,13464
1452,12258
1453,3370
1454,28470
1455,3038
1456,374
1457,321
1458,12081
1459,28471
1460,3348
1461,13416
1462,322
1463,365
1464,323
1465,324
1466,3353
1467,325
1468,3035
1469,13749
1470,326
1471,13757
1472,327
1473,450
1474,328
1475,454
1476,329
1477,12194
1478,12198
1479,12200
1480,330
1481,444
1482,331
1483,3416
1484,12176
1485,379
1486,380
1487,12178
1488,381
1489,12184
1490,442
1491,382
1492,383
1493,12197
1494,2803
1495,12236
1496,334
1497,332
1498,12294
1499,2948
1500,12280
1501,28432
1502,333
1503,334
1504,13755
1505,13752
1506,13751
1507,377
1508,28570
1509,12254
1510,378
1511,3408
1512,402
1513,343
1514,433
1515,335
1516,336
1517,28595
1518,337
1519,338
1520,3469
1521,3463
1522,12273
1523,339
1524,340
1525,12277
1526,341
1527,12284
1528,342
1529,358
1530,3047
1531,12167
1532,12168
1533,343
1534,13541
1535,13552
1536,12070
1537,3573
1538,13561
1539,3564
1540,13558
1541,13557
1542,344
1543,3301
1544,13524
1545,12150
1546,13525
1547,345
1548,13531
1549,346
1550,347
1551,12089
1552,3253
1553,3339
1554,198
1555,12091
1556,12148
1557,12165
1558,12162
1559,12160
1560,348
1561,349
1562,15932
1563,15929
1564,3224
1565,3300
1566,350
1567,351
1568,352
1569,353
1570,3545
1571,15909
1572,13602
1573,15904
1574,354
1575,14774
1576,357
1577,355
1578,27832
1579,3593
1580,356
1581,3238
1582,357
1583,13518
1584,358
1585,13548
1586,359
1587,3436
1588,13600
1589,13529
1590,3015
1591,200
1592,13457
1593,3043
1594,3317
1595,12100
1596,360
1597,361
1598,362
1599,12259
1600,3325
1601,12106
1602,12261
1603,363
1604,12267
1605,364
1606,3326
1607,13498
1608,3045
1609,3434
1610,201
1611,12075
1612,202
1613,12249
1614,13403
1615,365
1616,366
1617,367
1618,3667
1619,27838
1620,3302
1621,368
1622,3308
1623,27982
1624,12083
1625,369
1626,12095
1627,370
1628,13611
1629,13596
1630,3028
1631,12094
1632,13572
1633,13582
1634,371
1635,12093
1636,372
1637,373
1638,12072
1639,12073
1640,3011
1641,374
1642,375
1643,376
1644,3332
1645,13571
1646,377
1647,401
1648,378
1649,4666
1650,468
1651,3402
1652,4671
1653,4693
1654,4695
1655,12810
1656,463
1657,458
1658,12813
1659,2851
1660,3444
1661,13082
1662,13829
1663,379
1664,2883
1665,380
1666,381
1667,3406
1668,382
1669,383
1670,13843
1671,3390
1672,13836
1673,404
1674,465
1675,2659
1676,464
1677,384
1678,329
1679,385
1680,4726
1681,12738
1682,12739
1683,4717
1684,4727
1685,406
1686,386
1687,387
1688,2650
1689,388
1690,453
1691,2784
1692,12776
1693,12779
1694,12781
1695,4741
1696,12754
1697,389
1698,2736
1699,390
1700,2732
1701,391
1702,392
1703,330
1704,403
1705,12742
1706,456
1707,3440
1708,393
1709,12774
1710,28549
1711,394
1712,446
1713,395
1714,12777
1715,431
1716,13637
1717,396
1718,430
1719,13672
1720,12763
1721,2648
1722,397
1723,398
1724,4508
1725,28530
1726,13711
1727,2900
1728,13732
1729,2654
1730,2735
1731,399
1732,2695
1733,2640
1734,2917
1735,2697
1736,400
1737,401
1738,451
1739,2849
1740,402
1741,403
1742,3398
1743,13820
1744,432
1745,3433
1746,405
1747,404
1748,405
1749,406
1750,3427
1751,436
1752,407
1753,438
1754,2666
1755,408
1756,441
1757,409
1758,13667
1759,2706
1760,410
1761,445
1762,411
1763,3432
1764,13703
1765,412
1766,413
1767,414
1768,415
1769,416
1770,417
1771,418
1772,2622
1773,419
1774,420
1775,338
1776,2656
1777,421
1778,422
1779,28281
1780,423
1781,424
1782,12276
1783,2919
1784,425
1785,2764
1786,426
1787,339
1788,427
1789,428
1790,3462
1791,429
1792,2645
1793,2620
1794,430
1795,431
1796,402
1797,3443
1798,2791
1799,432
1800,433
1801,443
1802,434
1803,3409
1804,13657
1805,3476
1806,435
1807,436
1808,437
1809,438
1810,439
1811,440
1812,441
1813,442
1814,443
1815,444
1816,2902
1817,2760
1818,445
1819,2646
1820,2663
1821,446
1822,3403
1823,2956
1824,447
1825,448
1826,2816
1827,449
1828,13148
1829,450
1830,451
1831,2793
1832,2814
1833,12838
1834,12826
1835,455
1836,452
1837,12785
1838,2746
1839,404
1840,2820
1841,12750
1842,453
1843,12753
1844,2893
1845,12755
1846,2929
1847,12730
1848,454
1849,455
1850,456
1851,12828
1852,457
1853,12836
1854,458
1855,340
1856,459
1857,12210
1858,460
1859,461
1860,462
1861,2782
1862,2926
1863,2938
1864,463
1865,2907
1866,2909
1867,2843
1868,464
1869,12814
1870,2852
1871,2644
1872,2879
1873,465
1874,12215
1875,341
1876,466
1877,467
1878,13708
1879,327
1880,468
1881,12222
1882,469
1883,470
1884,16263
1885,471
1886,10917
1887,840
1888,10913
1889,560
1890,561
1891,843
1892,15212
1893,6459
1894,827
1895,6056
1896,6464
1897,831
1898,6447
1899,562
1900,10955
1901,5877
1902,471
1903,5945
1904,19903
1905,10956
1906,15189
1907,834
1908,10960
1909,14908
1910,19681
1911,15469
1912,6049
1913,10931
1914,10979
1915,472
1916,473
1917,5969
1918,528
1919,537
1920,5895
1921,6399
1922,5901
1923,11013
1924,538
1925,11015
1926,507
1927,539
1928,10996
1929,540
1930,541
1931,542
1932,543
1933,6070
1934,6045
1935,529
1936,530
1937,6001
1938,534
1939,699
1940,6043
1941,5978
1942,19630
1943,5475
1944,6204
1945,510
1946,15024
1947,15015
1948,511
1949,480
1950,15143
1951,512
1952,5517
1953,513
1954,15148
1955,10921
1956,6469
1957,6468
1958,514
1959,5435
1960,15130
1961,515
1962,482
1963,15423
1964,6364
1965,472
1966,473
1967,6323
1968,14987
1969,516
1970,474
1971,475
1972,6479
1973,6480
1974,563
1975,500
1976,502
1977,10938
1978,868
1979,476
1980,477
1981,503
1982,477
1983,508
1984,5852
1985,6170
1986,517
1987,518
1988,14887
1989,5399
1990,519
1991,14996
1992,14999
1993,6153
1994,6213
1995,488
1996,6212
1997,565
1998,6167
1999,15323
2000,6180
2001,522
2002,6386
2003,478
2004,479
2005,6120
2006,480
2007,484
2008,481
2009,482
2010,483
2011,484
2012,485
2013,15210
2014,499
2015,559
2016,486
2017,6021
2018,570
2019,567
2020,5987
2021,544
2022,10439
2023,5882
2024,5868
2025,14838
2026,5994
2027,487
2028,6124
2029,488
2030,489
2031,490
2032,491
2033,492
2034,493
2035,494
2036,495
2037,496
2038,620
2039,497
2040,498
2041,499
2042,557
2043,506
2044,573
2045,551
2046,587
2047,525
2048,509
2049,5913
2050,500
2051,501
2052,502
2053,503
2054,6067
2055,504
2056,505
2057,506
2058,507
2059,508
2060,6005
2061,6075
2062,6341
2063,574
2064,15141
2065,6084
2066,509
2067,575
2068,510
2069,6104
2070,571
2071,523
2072,524
2073,526
2074,5846
2075,511
2076,512
2077,5853
2078,10370
2079,513
2080,5854
2081,521
2082,514
2083,5951
2084,515
2085,10968
2086,6327
2087,516
2088,588
2089,10408
2090,5995
2091,10447
2092,6003
2093,871
2094,554
2095,6284
2096,10375
2097,15017
2098,572
2099,10379
2100,6106
2101,6109
2102,6006
2103,10381
2104,517
2105,582
2106,6085
2107,518
2108,519
2109,583
2110,584
2111,10365
2112,6069
2113,14886
2114,10404
2115,586
2116,6173
2117,15080
2118,5371
2119,520
2120,15258
2121,844
2122,15260
2123,15268
2124,11049
2125,6387
2126,11051
2127,5953
2128,11052
2129,6449
2130,11054
2131,11031
2132,521
2133,15208
2134,837
2135,522
2136,6347
2137,10749
2138,838
2139,15340
2140,6079
2141,839
2142,15350
2143,6087
2144,15331
2145,700
2146,536
2147,5836
2148,5483
2149,15519
2150,11112
2151,5831
2152,523
2153,5851
2154,527
2155,6431
2156,5991
2157,11040
2158,524
2159,11042
2160,531
2161,6330
2162,532
2163,533
2164,11024
2165,6393
2166,11030
2167,11061
2168,525
2169,11063
2170,526
2171,6099
2172,6015
2173,19949
2174,535
2175,11021
2176,527
2177,10754
2178,528
2179,579
2180,5959
2181,836
2182,529
2183,15287
2184,580
2185,5491
2186,842
2187,5917
2188,530
2189,11046
2190,11038
2191,531
2192,15303
2193,532
2194,533
2195,5927
2196,534
2197,5848
2198,535
2199,5840
2200,5835
2201,830
2202,5862
2203,536
2204,578
2205,10761
2206,10758
2207,10772
2208,6326
2209,537
2210,15333
2211,538
2212,10746
2213,539
2214,10732
2215,15314
2216,15332
2217,10739
2218,540
2219,5968
2220,15299
2221,15319
2222,541
2223,26470
2224,5865
2225,542
2226,6328
2227,5381
2228,15313
2229,6356
2230,5952
2231,543
2232,841
2233,15327
2234,6322
2235,608
2236,5891
2237,11108
2238,14849
2239,544
2240,545
2241,546
2242,14837
2243,547
2244,548
2245,6254
2246,6248
2247,6408
2248,549
2249,6417
2250,6037
2251,550
2252,551
2253,552
2254,19773
2255,5998
2256,14950
2257,6300
2258,553
2259,554
2260,6119
2261,11018
2262,6131
2263,555
2264,556
2265,557
2266,6247
2267,6047
2268,15101
2269,499
2270,558
2271,559
2272,6098
2273,560
2274,561
2275,6062
2276,562
2277,15082
2278,15086
2279,6392
2280,10953
2281,15090
2282,563
2283,564
2284,5902
2285,15118
2286,565
2287,566
2288,567
2289,5938
2290,568
2291,6255
2292,569
2293,570
2294,571
2295,572
2296,15599
2297,573
2298,11083
2299,574
2300,590
2301,19650
2302,591
2303,15395
2304,6427
2305,6421
2306,6053
2307,575
2308,576
2309,577
2310,11122
2311,15186
2312,11033
2313,578
2314,19285
2315,11124
2316,579
2317,15578
2318,580
2319,5873
2320,6377
2321,15620
2322,15489
2323,585
2324,15554
2325,11118
2326,14968
2327,581
2328,582
2329,14892
2330,14901
2331,6080
2332,14903
2333,583
2334,584
2335,585
2336,586
2337,19669
2338,6113
2339,5847
2340,11097
2341,15473
2342,587
2343,588
2344,589
2345,15461
2346,589
2347,15499
2348,15506
2349,590
2350,591
2351,11100
2352,11092
2353,5921
2354,592
2355,654
2356,593
2357,6544
2358,593
2359,641
2360,6750
2361,10650
2362,10257
2363,7413
2364,594
2365,5699
2366,5668
2367,10578
2368,630
2369,10597
2370,631
2371,6810
2372,6679
2373,594
2374,15754
2375,15750
2376,7342
2377,10316
2378,595
2379,596
2380,597
2381,10607
2382,598
2383,600
2384,15655
2385,15635
2386,639
2387,6501
2388,10653
2389,645
2390,6772
2391,7215
2392,599
2393,10585
2394,6760
2395,10587
2396,5756
2397,6503
2398,5764
2399,6758
2400,15797
2401,10657
2402,600
2403,640
2404,10579
2405,6747
2406,15669
2407,5799
2408,15660
2409,10605
2410,6545
2411,10317
2412,601
2413,602
2414,5782
2415,603
2416,21679
2417,604
2418,16338
2419,5721
2420,10253
2421,635
2422,636
2423,605
2424,606
2425,609
2426,607
2427,629
2428,7261
2429,608
2430,652
2431,7245
2432,5805
2433,10262
2434,16388
2435,7230
2436,10266
2437,609
2438,16373
2439,610
2440,611
2441,7401
2442,16358
2443,7384
2444,612
2445,632
2446,10304
2447,615
2448,613
2449,5732
2450,614
2451,615
2452,6703
2453,10298
2454,5739
2455,10648
2456,10615
2457,633
2458,634
2459,10351
2460,10352
2461,7543
2462,10354
2463,15762
2464,15769
2465,10356
2466,616
2467,617
2468,618
2469,15777
2470,627
2471,7520
2472,15642
2473,15868
2474,15871
2475,10491
2476,2486
2477,16018
2478,10479
2479,5659
2480,5630
2481,5254
2482,21409
2483,6877
2484,682
2485,683
2486,628
2487,10297
2488,621
2489,622
2490,653
2491,623
2492,5541
2493,619
2494,6615
2495,5259
2496,21249
2497,6631
2498,15885
2499,2451
2500,691
2501,15850
2502,15903
2503,6512
2504,15899
2505,15901
2506,2457
2507,10544
2508,6935
2509,5600
2510,10563
2511,10536
2512,10565
2513,15889
2514,21301
2515,6872
2516,695
2517,646
2518,15855
2519,6843
2520,647
2521,15860
2522,10481
2523,2467
2524,10517
2525,15847
2526,697
2527,7018
2528,10561
2529,5291
2530,624
2531,685
2532,15986
2533,10643
2534,7079
2535,15993
2536,6532
2537,620
2538,10660
2539,15975
2540,621
2541,7538
2542,622
2543,623
2544,10671
2545,642
2546,15681
2547,624
2548,5773
2549,7098
2550,625
2551,7478
2552,7102
2553,6505
2554,637
2555,626
2556,638
2557,15959
2558,10342
2559,681
2560,15950
2561,10500
2562,686
2563,625
2564,5535
2565,626
2566,687
2567,5585
2568,16034
2569,15953
2570,627
2571,6507
2572,16035
2573,684
2574,21344
2575,688
2576,628
2577,689
2578,10639
2579,10641
2580,10617
2581,6901
2582,690
2583,15964
2584,5570
2585,10627
2586,15968
2587,10344
2588,16376
2589,629
2590,5487
2591,677
2592,5771
2593,692
2594,16091
2595,10243
2596,678
2597,698
2598,16074
2599,630
2600,16230
2601,631
2602,6659
2603,16226
2604,5351
2605,632
2606,7492
2607,679
2608,7204
2609,633
2610,634
2611,5686
2612,635
2613,16244
2614,694
2615,636
2616,16109
2617,5562
2618,16060
2619,16096
2620,5606
2621,637
2622,638
2623,6530
2624,16468
2625,639
2626,5658
2627,5660
2628,6536
2629,10494
2630,16098
2631,5596
2632,7381
2633,16105
2634,16151
2635,6539
2636,640
2637,675
2638,6577
2639,6752
2640,693
2641,6737
2642,6734
2643,676
2644,641
2645,5592
2646,5526
2647,642
2648,656
2649,16188
2650,659
2651,660
2652,7340
2653,5279
2654,5283
2655,15056
2656,5556
2657,7368
2658,662
2659,643
2660,644
2661,666
2662,667
2663,5617
2664,645
2665,646
2666,647
2667,648
2668,649
2669,5757
2670,650
2671,5342
2672,680
2673,5270
2674,651
2675,19951
2676,7394
2677,658
2678,5235
2679,16173
2680,696
2681,6855
2682,671
2683,5744
2684,7265
2685,7269
2686,672
2687,673
2688,7409
2689,5250
2690,7133
2691,652
2692,5309
2693,661
2694,663
2695,16205
2696,665
2697,7308
2698,674
2699,7294
2700,653
2701,15032
2702,670
2703,654
2704,7212
2705,16093
2706,655
2707,16426
2708,5621
2709,16310
2710,656
2711,657
2712,5234
2713,658
2714,659
2715,669
2716,10418
2717,660
2718,5359
2719,5334
2720,661
2721,10332
2722,10436
2723,662
2724,663
2725,664
2726,10611
2727,665
2728,666
2729,667
2730,668
2731,6730
2732,6733
2733,5267
2734,5720
2735,669
2736,654
2737,670
2738,5287
2739,671
2740,16283
2741,10245
2742,16284
2743,672
2744,5321
2745,10355
2746,5289
2747,673
2748,5821
2749,10358
2750,674
2751,10287
2752,675
2753,676
2754,677
2755,5327
2756,10271
2757,678
2758,669
2759,5670
2760,10273
2761,679
2762,10274
2763,680
2764,5328
2765,681
2766,5801
2767,5232
2768,16464
2769,16500
2770,7391
2771,7412
2772,682
2773,683
2774,7400
2775,7072
2776,684
2777,7067
2778,7124
2779,685
2780,686
2781,687
2782,16413
2783,10557
2784,16414
2785,7300
2786,688
2787,689
2788,10285
2789,16404
2790,690
2791,16439
2792,10483
2793,16463
2794,691
2795,16461
2796,16068
2797,2450
2798,5242
2799,692
2800,5261
2801,2483
2802,2487
2803,2484
2804,2412
2805,16155
2806,2408
2807,16281
2808,6841
2809,693
2810,10519
2811,2420
2812,5542
2813,7150
2814,6969
2815,16299
2816,694
2817,16480
2818,695
2819,696
2820,7185
2821,646
2822,697
2823,698
2824,10064
2825,699
2826,700
2827,718
2828,5462
2829,726
2830,727
2831,701
2832,702
2833,728
2834,703
2835,14807
2836,5691
2837,704
2838,705
2839,5763
2840,706
2841,707
2842,14827
2843,708
2844,709
2845,5803
2846,782
2847,14805
2848,14787
2849,9451
2850,14786
2851,5623
2852,714
2853,7421
2854,5664
2855,725
2856,5645
2857,907
2858,710
2859,5694
2860,14959
2861,909
2862,908
2863,26625
2864,723
2865,14979
2866,26618
2867,5246
2868,5357
2869,14974
2870,26635
2871,734
2872,5639
2873,14944
2874,5700
2875,5635
2876,732
2877,14937
2878,733
2879,724
2880,710
2881,711
2882,9449
2883,7411
2884,729
2885,712
2886,787
2887,5810
2888,5532
2889,7315
2890,14872
2891,712
2892,14870
2893,9362
2894,14868
2895,719
2896,14843
2897,776
2898,5553
2899,5643
2900,713
2901,767
2902,5813
2903,713
2904,7425
2905,9392
2906,900
2907,15114
2908,713
2909,720
2910,26725
2911,5584
2912,9358
2913,5806
2914,9437
2915,9430
2916,5628
2917,14776
2918,783
2919,7301
2920,5774
2921,730
2922,9364
2923,5571
2924,731
2925,722
2926,906
2927,721
2928,9373
2929,14864
2930,715
2931,9351
2932,7376
2933,716
2934,5800
2935,7335
2936,786
2937,717
2938,9434
2939,9443
2940,7372
2941,905
2942,5714
2943,904
2944,714
2945,5262
2946,715
2947,716
2948,717
2949,7290
2950,946
2951,718
2952,947
2953,719
2954,9578
2955,924
2956,720
2957,735
2958,5236
2959,26962
2960,7402
2961,785
2962,895
2963,9684
2964,766
2965,768
2966,9773
2967,769
2968,896
2969,7353
2970,721
2971,722
2972,7325
2973,5572
2974,723
2975,5485
2976,922
2977,927
2978,5631
2979,9734
2980,5636
2981,724
2982,725
2983,726
2984,727
2985,770
2986,728
2987,910
2988,729
2989,5514
2990,955
2991,5505
2992,730
2993,952
2994,954
2995,957
2996,731
2997,5632
2998,960
2999,929
3000,15109
3001,773
3002,892
3003,764
3004,903
3005,743
3006,5292
3007,9569
3008,5314
3009,9723
3010,5304
3011,5313
3012,915
3013,5719
3014,916
3015,14879
3016,732
3017,918
3018,5717
3019,5713
3020,5728
3021,733
3022,14891
3023,5675
3024,923
3025,902
3026,5637
3027,14896
3028,734
3029,795
3030,794
3031,793
3032,781
3033,9688
3034,26679
3035,5335
3036,797
3037,883
3038,887
3039,784
3040,15004
3041,800
3042,9676
3043,801
3044,898
3045,7140
3046,7164
3047,806
3048,7174
3049,15002
3050,765
3051,9674
3052,791
3053,9690
3054,5566
3055,889
3056,26719
3057,890
3058,805
3059,26745
3060,9379
3061,735
3062,7494
3063,751
3064,9484
3065,7541
3066,25781
3067,7476
3068,736
3069,750
3070,6805
3071,737
3072,15045
3073,6812
3074,738
3075,739
3076,740
3077,9493
3078,741
3079,10010
3080,10080
3081,742
3082,7141
3083,759
3084,807
3085,16209
3086,6765
3087,7449
3088,758
3089,6676
3090,762
3091,15030
3092,15028
3093,9460
3094,15070
3095,25678
3096,5582
3097,743
3098,7500
3099,753
3100,755
3101,6726
3102,744
3103,745
3104,757
3105,761
3106,9467
3107,9496
3108,9498
3109,746
3110,16094
3111,747
3112,748
3113,749
3114,9499
3115,749
3116,6684
3117,7437
3118,5579
3119,9468
3120,808
3121,7507
3122,750
3123,16159
3124,7496
3125,7501
3126,16169
3127,751
3128,7440
3129,7526
3130,7544
3131,752
3132,753
3133,7482
3134,754
3135,16246
3136,6699
3137,10087
3138,756
3139,6694
3140,755
3141,16175
3142,756
3143,16258
3144,16172
3145,16253
3146,757
3147,7234
3148,16161
3149,758
3150,15049
3151,15047
3152,759
3153,7243
3154,7214
3155,15624
3156,16193
3157,16190
3158,16187
3159,16184
3160,789
3161,16210
3162,760
3163,790
3164,16207
3165,7272
3166,763
3167,7274
3168,7218
3169,7227
3170,16203
3171,761
3172,762
3173,16201
3174,7539
3175,763
3176,792
3177,9412
3178,764
3179,765
3180,766
3181,9370
3182,767
3183,768
3184,769
3185,7303
3186,777
3187,5788
3188,778
3189,779
3190,770
3191,15162
3192,15161
3193,771
3194,772
3195,773
3196,774
3197,15178
3198,15177
3199,15175
3200,775
3201,26761
3202,7184
3203,7302
3204,5786
3205,776
3206,5754
3207,780
3208,7289
3209,26805
3210,15116
3211,15102
3212,777
3213,778
3214,9387
3215,15088
3216,5762
3217,7393
3218,779
3219,7397
3220,780
3221,781
3222,782
3223,780
3224,15099
3225,5616
3226,15096
3227,5619
3228,783
3229,7331
3230,7339
3231,784
3232,785
3233,786
3234,787
3235,5751
3236,15073
3237,788
3238,15149
3239,7442
3240,14995
3241,14991
3242,14990
3243,5563
3244,9541
3245,789
3246,790
3247,9544
3248,791
3249,9548
3250,14997
3251,792
3252,5567
3253,901
3254,793
3255,7462
3256,9471
3257,794
3258,15060
3259,15057
3260,795
3261,15076
3262,7161
3263,15074
3264,15038
3265,7490
3266,7385
3267,15022
3268,796
3269,7172
3270,25698
3271,15133
3272,797
3273,7427
3274,798
3275,799
3276,15127
3277,800
3278,801
3279,802
3280,803
3281,804
3282,9529
3283,9530
3284,9531
3285,7377
3286,7137
3287,805
3288,9515
3289,9551
3290,15018
3291,806
3292,807
3293,808
3294,809
3295,15387
3296,5543
3297,9410
3298,10892
3299,5515
3300,5503
3301,942
3302,6176
3303,10894
3304,951
3305,953
3306,956
3307,5789
3308,5417
3309,823
3310,5472
3311,10901
3312,958
3313,5478
3314,5422
3315,959
3316,949
3317,5413
3318,943
3319,810
3320,10883
3321,26266
3322,5265
3323,5501
3324,944
3325,5499
3326,6290
3327,810
3328,6209
3329,6214
3330,821
3331,10702
3332,5230
3333,811
3334,10704
3335,813
3336,5251
3337,819
3338,26274
3339,814
3340,820
3341,5302
3342,815
3343,817
3344,934
3345,822
3346,5369
3347,10864
3348,5385
3349,5441
3350,824
3351,928
3352,825
3353,945
3354,5280
3355,948
3356,811
3357,6311
3358,818
3359,6158
3360,15234
3361,15242
3362,816
3363,812
3364,813
3365,814
3366,815
3367,6151
3368,816
3369,15243
3370,10802
3371,881
3372,10807
3373,845
3374,817
3375,15394
3376,5431
3377,10785
3378,10786
3379,6169
3380,816
3381,15281
3382,6217
3383,15256
3384,818
3385,899
3386,893
3387,819
3388,894
3389,826
3390,820
3391,10709
3392,821
3393,897
3394,822
3395,10705
3396,15477
3397,823
3398,884
3399,885
3400,886
3401,15529
3402,824
3403,888
3404,825
3405,5346
3406,6299
3407,891
3408,5420
3409,5317
3410,911
3411,15562
3412,15236
3413,813
3414,826
3415,15362
3416,15357
3417,827
3418,828
3419,829
3420,6455
3421,10757
3422,5855
3423,6331
3424,830
3425,831
3426,832
3427,833
3428,6361
3429,867
3430,5860
3431,6486
3432,10769
3433,6474
3434,5384
3435,869
3436,834
3437,870
3438,26523
3439,10677
3440,835
3441,5947
3442,836
3443,26444
3444,5956
3445,837
3446,5967
3447,5966
3448,838
3449,15365
3450,5834
3451,839
3452,10736
3453,15393
3454,6378
3455,5955
3456,10688
3457,10741
3458,6370
3459,840
3460,5914
3461,5928
3462,841
3463,6383
3464,842
3465,5838
3466,700
3467,843
3468,844
3469,5924
3470,15386
3471,845
3472,10683
3473,500
3474,6252
3475,846
3476,847
3477,848
3478,849
3479,6185
3480,857
3481,850
3482,851
3483,26551
3484,852
3485,858
3486,10719
3487,853
3488,854
3489,10723
3490,859
3491,855
3492,856
3493,857
3494,858
3495,859
3496,860
3497,861
3498,862
3499,863
3500,864
3501,865
3502,866
3503,26520
3504,867
3505,502
3506,6452
3507,15200
3508,5897
3509,15198
3510,868
3511,869
3512,10676
3513,870
3514,6472
3515,6411
3516,880
3517,871
3518,872
3519,873
3520,6419
3521,874
3522,875
3523,876
3524,877
3525,15259
3526,6230
3527,878
3528,879
3529,880
3530,881
3531,882
3532,15550
3533,5742
3534,15466
3535,9596
3536,9600
3537,883
3538,15462
3539,6277
3540,884
3541,885
3542,9576
3543,886
3544,887
3545,5698
3546,9755
3547,888
3548,26899
3549,889
3550,5696
3551,15478
3552,5577
3553,15475
3554,6270
3555,14912
3556,890
3557,891
3558,9590
3559,892
3560,9612
3561,5277
3562,15401
3563,9584
3564,5816
3565,15406
3566,5284
3567,893
3568,26886
3569,15396
3570,894
3571,895
3572,896
3573,5749
3574,734
3575,9567
3576,821
3577,9654
3578,5272
3579,6236
3580,5264
3581,5268
3582,5336
3583,897
3584,15536
3585,15513
3586,9604
3587,898
3588,5644
3589,899
3590,14931
3591,26855
3592,5822
3593,9704
3594,5812
3595,27018
3596,900
3597,5767
3598,805
3599,901
3600,902
3601,794
3602,903
3603,904
3604,905
3605,5550
3606,5544
3607,5538
3608,906
3609,14839
3610,5652
3611,907
3612,710
3613,9416
3614,5539
3615,908
3616,909
3617,9727
3618,715
3619,9749
3620,910
3621,26823
3622,911
3623,14885
3624,5818
3625,5324
3626,912
3627,913
3628,914
3629,5750
3630,915
3631,916
3632,917
3633,14926
3634,918
3635,5712
3636,5775
3637,919
3638,920
3639,9691
3640,921
3641,5558
3642,9671
3643,5682
3644,922
3645,5531
3646,923
3647,9685
3648,5598
3649,9626
3650,924
3651,925
3652,26378
3653,26414
3654,15517
3655,926
3656,10836
3657,6175
3658,10838
3659,15541
3660,5480
3661,10817
3662,6171
3663,6172
3664,927
3665,928
3666,6273
3667,5703
3668,929
3669,10830
3670,6296
3671,15566
3672,15606
3673,26375
3674,5476
3675,6265
3676,6320
3677,930
3678,931
3679,932
3680,933
3681,934
3682,935
3683,15561
3684,5400
3685,10815
3686,15565
3687,10816
3688,6178
3689,937
3690,15563
3691,15596
3692,15603
3693,936
3694,938
3695,5362
3696,936
3697,5380
3698,6189
3699,15542
3700,5363
3701,937
3702,941
3703,938
3704,939
3705,940
3706,941
3707,9583
3708,5804
3709,942
3710,943
3711,5244
3712,9664
3713,15431
3714,10832
3715,6312
3716,810
3717,5237
3718,950
3719,944
3720,15452
3721,945
3722,5481
3723,946
3724,5239
3725,5256
3726,15491
3727,947
3728,9655
3729,15440
3730,5340
3731,5329
3732,5330
3733,9650
3734,948
3735,949
3736,950
3737,15586
3738,15589
3739,951
3740,15433
3741,15429
3742,5361
3743,15621
3744,5450
3745,952
3746,15446
3747,953
3748,9621
3749,6222
3750,954
3751,955
3752,6292
3753,9627
3754,956
3755,957
3756,9631
3757,823
3758,958
3759,950
3760,15576
3761,15571
3762,15593
3763,959
3764,960
3765,15619
3766,6988
3767,5001
3768,5011
3769,6595
3770,16734
3771,17707
3772,3584
3773,8674
3774,3572
3775,17891
3776,8706
3777,3657
3778,1093
3779,980
3780,3606
3781,17690
3782,1094
3783,1096
3784,17732
3785,17700
3786,17697
3787,17695
3788,1097
3789,3305
3790,1098
3791,1032
3792,17753
3793,3578
3794,8682
3795,6745
3796,1023
3797,1105
3798,1019
3799,971
3800,7088
3801,16689
3802,7058
3803,16686
3804,1088
3805,3356
3806,8461
3807,8457
3808,7115
3809,16754
3810,3365
3811,7128
3812,16736
3813,3364
3814,3000
3815,1089
3816,1090
3817,17686
3818,3614
3819,979
3820,1020
3821,1031
3822,8493
3823,16730
3824,3594
3825,6534
3826,25368
3827,1011
3828,966
3829,8512
3830,17668
3831,992
3832,3093
3833,17675
3834,6675
3835,994
3836,6686
3837,967
3838,968
3839,969
3840,3643
3841,17647
3842,3638
3843,17662
3844,2981
3845,3514
3846,8233
3847,17649
3848,3512
3849,962
3850,7524
3851,17741
3852,1012
3853,17673
3854,3629
3855,1030
3856,3548
3857,6528
3858,6510
3859,3621
3860,1025
3861,17735
3862,961
3863,17729
3864,963
3865,17674
3866,17630
3867,964
3868,1017
3869,8597
3870,6564
3871,3286
3872,3077
3873,17626
3874,6542
3875,965
3876,3082
3877,17642
3878,961
3879,17609
3880,970
3881,17617
3882,6794
3883,3309
3884,8468
3885,25286
3886,17321
3887,977
3888,972
3889,1035
3890,1036
3891,16700
3892,1038
3893,3285
3894,1039
3895,1040
3896,3266
3897,6514
3898,1108
3899,1033
3900,6886
3901,3159
3902,8739
3903,976
3904,1049
3905,8580
3906,1050
3907,6523
3908,1051
3909,1048
3910,1047
3911,962
3912,8455
3913,973
3914,6619
3915,3247
3916,3231
3917,6597
3918,17718
3919,3025
3920,963
3921,964
3922,3298
3923,982
3924,3290
3925,965
3926,8671
3927,1041
3928,17605
3929,983
3930,1034
3931,966
3932,967
3933,3482
3934,968
3935,969
3936,3143
3937,989
3938,8494
3939,987
3940,6618
3941,970
3942,3016
3943,1042
3944,8510
3945,971
3946,8523
3947,8578
3948,975
3949,978
3950,6553
3951,1014
3952,1015
3953,8572
3954,1016
3955,1018
3956,16839
3957,1111
3958,6556
3959,16847
3960,16846
3961,25051
3962,24721
3963,16710
3964,1099
3965,6896
3966,1085
3967,1086
3968,1087
3969,6645
3970,8685
3971,8678
3972,974
3973,6623
3974,1044
3975,6511
3976,1045
3977,1046
3978,8526
3979,8540
3980,7046
3981,8542
3982,8738
3983,990
3984,6599
3985,981
3986,1043
3987,984
3988,8532
3989,6625
3990,986
3991,3182
3992,3116
3993,6591
3994,6941
3995,8528
3996,1021
3997,988
3998,1092
3999,6613
4000,985
4001,3007
4002,17866
4003,972
4004,973
4005,974
4006,3518
4007,3490
4008,17375
4009,3491
4010,3105
4011,975
4012,3561
4013,976
4014,8544
4015,3534
4016,3535
4017,977
4018,17277
4019,3492
4020,3111
4021,17253
4022,17276
4023,978
4024,979
4025,980
4026,981
4027,17296
4028,6543
4029,3496
4030,6628
4031,3067
4032,6616
4033,1095
4034,3597
4035,17384
4036,1248
4037,2708
4038,3086
4039,17380
4040,3579
4041,17327
4042,982
4043,983
4044,17265
4045,984
4046,7043
4047,985
4048,986
4049,17238
4050,17244
4051,17255
4052,25349
4053,3646
4054,17246
4055,6640
4056,17275
4057,987
4058,988
4059,989
4060,990
4061,17292
4062,6569
4063,991
4064,992
4065,993
4066,994
4067,995
4068,8577
4069,996
4070,997
4071,3192
4072,3208
4073,998
4074,3207
4075,6704
4076,999
4077,1000
4078,1001
4079,1002
4080,1003
4081,1004
4082,1005
4083,1006
4084,1007
4085,1037
4086,1008
4087,1009
4088,1010
4089,1011
4090,1012
4091,1013
4092,3559
4093,1014
4094,1015
4095,3104
4096,1016
4097,1017
4098,1018
4099,1019
4100,2983
4101,2982
4102,17549
4103,1020
4104,1021
4105,1022
4106,3030
4107,1023
4108,3017
4109,1024
4110,1025
4111,1026
4112,3287
4113,8545
4114,1027
4115,1028
4116,1029
4117,1030
4118,1031
4119,1032
4120,3605
4121,6993
4122,7455
4123,1280
4124,8632
4125,17782
4126,8562
4127,8206
4128,17779
4129,3553
4130,8178
4131,8174
4132,17794
4133,7233
4134,8398
4135,8408
4136,1117
4137,1118
4138,3141
4139,1136
4140,1137
4141,1033
4142,3129
4143,2846
4144,1138
4145,8225
4146,3550
4147,8151
4148,1286
4149,1034
4150,1273
4151,17862
4152,1035
4153,7467
4154,8279
4155,1036
4156,17877
4157,8531
4158,17875
4159,17938
4160,17933
4161,1213
4162,17949
4163,1037
4164,6698
4165,7531
4166,6697
4167,1038
4168,1268
4169,1039
4170,3269
4171,3275
4172,6537
4173,8166
4174,1040
4175,1272
4176,17750
4177,3281
4178,3501
4179,3173
4180,2770
4181,1071
4182,1075
4183,17323
4184,1041
4185,1042
4186,1043
4187,1076
4188,3338
4189,3078
4190,17354
4191,1107
4192,7057
4193,1044
4194,1045
4195,17841
4196,7126
4197,7034
4198,1046
4199,8330
4200,1110
4201,2811
4202,1135
4203,2891
4204,17379
4205,1091
4206,1047
4207,1066
4208,6834
4209,1048
4210,1140
4211,1141
4212,3546
4213,1132
4214,17799
4215,1109
4216,8277
4217,1133
4218,6970
4219,25263
4220,7064
4221,2719
4222,1139
4223,1049
4224,1050
4225,3420
4226,8262
4227,1079
4228,17820
4229,1080
4230,1081
4231,1051
4232,3396
4233,1266
4234,3468
4235,17356
4236,1078
4237,1052
4238,3097
4239,8736
4240,1764
4241,1765
4242,4937
4243,1709
4244,1745
4245,1713
4246,16900
4247,1744
4248,4561
4249,1716
4250,16955
4251,4566
4252,1650
4253,1698
4254,17088
4255,5219
4256,16972
4257,4941
4258,1699
4259,4652
4260,1703
4261,16934
4262,4962
4263,1705
4264,1641
4265,4928
4266,1740
4267,1762
4268,1771
4269,1741
4270,5195
4271,3926
4272,1674
4273,4997
4274,17065
4275,3925
4276,1742
4277,1774
4278,18851
4279,5050
4280,17028
4281,17031
4282,1777
4283,1780
4284,16916
4285,1782
4286,4836
4287,16913
4288,1755
4289,5095
4290,1773
4291,1645
4292,1772
4293,4657
4294,8862
4295,1732
4296,5019
4297,5033
4298,1055
4299,16597
4300,17230
4301,4760
4302,1679
4303,1778
4304,8867
4305,4862
4306,24915
4307,4886
4308,1779
4309,4881
4310,1057
4311,2773
4312,4877
4313,1785
4314,17110
4315,4826
4316,1053
4317,1730
4318,1733
4319,1783
4320,1054
4321,1784
4322,16665
4323,1727
4324,4060
4325,1726
4326,22828
4327,5036
4328,5075
4329,17182
4330,17180
4331,4472
4332,1729
4333,1743
4334,17166
4335,1728
4336,1752
4337,1723
4338,17123
4339,16989
4340,17176
4341,17173
4342,4506
4343,1054
4344,16628
4345,8774
4346,1758
4347,1775
4348,4584
4349,17222
4350,1776
4351,17221
4352,17233
4353,5106
4354,1738
4355,16992
4356,1737
4357,4023
4358,18786
4359,1660
4360,1646
4361,1648
4362,3758
4363,18769
4364,1673
4365,18981
4366,18971
4367,4010
4368,1675
4369,18964
4370,3904
4371,1678
4372,4047
4373,3903
4374,3685
4375,4981
4376,1662
4377,4490
4378,19029
4379,5025
4380,1672
4381,16896
4382,4031
4383,18791
4384,1647
4385,18784
4386,1680
4387,18730
4388,16951
4389,4085
4390,1659
4391,4034
4392,23081
4393,23073
4394,1661
4395,18712
4396,18711
4397,17046
4398,19005
4399,1663
4400,1676
4401,22869
4402,1055
4403,18722
4404,4687
4405,18716
4406,1649
4407,9100
4408,1677
4409,3745
4410,22826
4411,1644
4412,4631
4413,1056
4414,18999
4415,4991
4416,1747
4417,5167
4418,3875
4419,1671
4420,22777
4421,8033
4422,1748
4423,1697
4424,1749
4425,1057
4426,3886
4427,3948
4428,17021
4429,1751
4430,1757
4431,3934
4432,1753
4433,5136
4434,1664
4435,4971
4436,3974
4437,4970
4438,1736
4439,5211
4440,17198
4441,22774
4442,1669
4443,18941
4444,18925
4445,18907
4446,18906
4447,3900
4448,18902
4449,18920
4450,18917
4451,18913
4452,1058
4453,18912
4454,1670
4455,1665
4456,3909
4457,3882
4458,18882
4459,1058
4460,16931
4461,1668
4462,8003
4463,4925
4464,16938
4465,18949
4466,3876
4467,16933
4468,9219
4469,4913
4470,18929
4471,1746
4472,17082
4473,1059
4474,1060
4475,1720
4476,16835
4477,1061
4478,1062
4479,1063
4480,1064
4481,1065
4482,1066
4483,3567
4484,8220
4485,1067
4486,1068
4487,8216
4488,1069
4489,1070
4490,1071
4491,1072
4492,1073
4493,1074
4494,3658
4495,1075
4496,3666
4497,24717
4498,1076
4499,1077
4500,5198
4501,16872
4502,16873
4503,8270
4504,1701
4505,5189
4506,16813
4507,1078
4508,2693
4509,16806
4510,8138
4511,1702
4512,1079
4513,5185
4514,1080
4515,1081
4516,1082
4517,16827
4518,8214
4519,2723
4520,8249
4521,8251
4522,1704
4523,8253
4524,1706
4525,16792
4526,16862
4527,3413
4528,8282
4529,3411
4530,16820
4531,3439
4532,1083
4533,1084
4534,2998
4535,1085
4536,1086
4537,1087
4538,2999
4539,1088
4540,8614
4541,1089
4542,1090
4543,3034
4544,1091
4545,3032
4546,1092
4547,8593
4548,1093
4549,3070
4550,1094
4551,1095
4552,3240
4553,8720
4554,1096
4555,8747
4556,1097
4557,1098
4558,17654
4559,8155
4560,1099
4561,7051
4562,3120
4563,8638
4564,1100
4565,1101
4566,1102
4567,1103
4568,1104
4569,1105
4570,1094
4571,1106
4572,8645
4573,8650
4574,963
4575,3465
4576,1107
4577,6990
4578,8598
4579,967
4580,3195
4581,3371
4582,1108
4583,1109
4584,1049
4585,1110
4586,988
4587,1016
4588,1111
4589,1112
4590,8737
4591,16553
4592,16572
4593,1113
4594,2629
4595,1769
4596,4906
4597,16683
4598,1770
4599,4722
4600,1114
4601,1115
4602,16623
4603,1116
4604,8339
4605,6825
4606,1117
4607,1118
4608,1642
4609,2750
4610,16634
4611,8352
4612,5172
4613,1719
4614,8349
4615,16600
4616,6817
4617,1710
4618,1119
4619,1120
4620,4714
4621,1121
4622,17080
4623,2625
4624,1759
4625,1760
4626,4914
4627,1122
4628,1123
4629,4702
4630,1761
4631,24894
4632,1124
4633,1125
4634,1711
4635,1126
4636,1666
4637,1763
4638,1766
4639,4889
4640,16575
4641,17148
4642,1767
4643,1127
4644,1128
4645,1768
4646,1129
4647,1130
4648,1131
4649,16556
4650,16615
4651,24912
4652,1134
4653,8434
4654,1715
4655,8412
4656,1718
4657,3419
4658,1708
4659,8378
4660,8369
4661,2861
4662,8371
4663,1132
4664,8387
4665,1133
4666,8184
4667,16524
4668,8191
4669,16548
4670,16841
4671,16574
4672,1707
4673,8284
4674,3479
4675,1700
4676,1134
4677,1667
4678,2687
4679,1135
4680,2769
4681,6827
4682,16608
4683,16670
4684,1136
4685,1643
4686,2767
4687,1137
4688,5178
4689,1138
4690,8317
4691,1139
4692,2804
4693,2877
4694,2899
4695,16648
4696,8422
4697,8426
4698,1712
4699,2904
4700,6867
4701,16535
4702,1140
4703,8381
4704,1714
4705,2686
4706,1141
4707,16664
4708,1656
4709,1257
4710,1142
4711,5312
4712,1360
4713,5315
4714,24301
4715,19012
4716,7295
4717,18847
4718,1362
4719,5724
4720,19025
4721,5290
4722,18978
4723,19045
4724,18963
4725,18966
4726,18996
4727,5904
4728,1352
4729,6372
4730,5353
4731,5349
4732,18778
4733,5343
4734,5319
4735,5247
4736,1361
4737,18704
4738,5817
4739,1364
4740,16910
4741,5569
4742,17029
4743,5677
4744,17054
4745,1243
4746,1244
4747,1228
4748,5737
4749,1356
4750,24525
4751,1312
4752,5794
4753,17234
4754,1232
4755,5705
4756,18926
4757,1236
4758,1215
4759,1319
4760,6111
4761,18880
4762,5678
4763,1357
4764,1358
4765,1359
4766,18823
4767,1355
4768,5238
4769,5780
4770,1185
4771,5425
4772,1187
4773,5440
4774,1375
4775,1204
4776,7586
4777,5546
4778,1330
4779,1199
4780,1333
4781,1201
4782,1202
4783,1203
4784,5615
4785,17959
4786,1212
4787,1324
4788,17952
4789,1188
4790,1320
4791,1321
4792,1322
4793,1205
4794,9092
4795,1365
4796,1373
4797,1370
4798,18795
4799,5624
4800,1376
4801,5295
4802,18866
4803,24594
4804,1351
4805,1314
4806,1143
4807,19166
4808,1378
4809,5344
4810,16921
4811,19078
4812,1384
4813,5554
4814,1353
4815,19058
4816,1354
4817,1374
4818,5294
4819,1143
4820,1367
4821,1183
4822,1177
4823,1178
4824,1383
4825,1240
4826,24496
4827,24346
4828,16739
4829,16740
4830,7981
4831,5573
4832,8067
4833,5595
4834,8108
4835,1241
4836,1182
4837,1242
4838,7990
4839,1186
4840,5776
4841,7646
4842,16629
4843,16695
4844,1144
4845,16720
4846,16712
4847,1224
4848,5521
4849,5557
4850,24568
4851,5646
4852,16833
4853,5575
4854,17712
4855,1144
4856,1181
4857,17876
4858,17878
4859,5364
4860,1219
4861,1220
4862,17721
4863,7712
4864,24544
4865,5352
4866,7713
4867,5464
4868,7638
4869,5578
4870,5588
4871,5233
4872,1179
4873,1238
4874,17376
4875,1180
4876,17747
4877,7910
4878,1239
4879,17754
4880,17409
4881,5473
4882,16602
4883,1221
4884,19124
4885,16794
4886,6238
4887,5608
4888,1231
4889,5688
4890,6354
4891,6060
4892,5657
4893,1200
4894,17104
4895,17108
4896,1311
4897,17095
4898,6336
4899,8289
4900,17206
4901,8308
4902,1226
4903,1216
4904,1233
4905,1234
4906,1217
4907,5684
4908,16944
4909,1235
4910,5534
4911,1318
4912,1230
4913,1214
4914,5807
4915,24040
4916,1237
4917,5586
4918,1292
4919,7379
4920,1293
4921,1294
4922,16522
4923,7998
4924,6179
4925,24010
4926,5827
4927,1296
4928,1245
4929,8013
4930,16646
4931,1247
4932,1246
4933,1223
4934,7345
4935,7777
4936,6054
4937,1225
4938,6434
4939,1198
4940,5524
4941,1229
4942,16640
4943,1189
4944,1191
4945,6228
4946,1145
4947,1146
4948,6985
4949,1147
4950,7332
4951,7975
4952,6592
4953,1149
4954,1152
4955,7287
4956,6575
4957,1164
4958,1165
4959,1190
4960,6496
4961,1166
4962,6746
4963,18623
4964,8077
4965,6756
4966,6552
4967,1193
4968,1148
4969,1149
4970,18638
4971,6633
4972,7901
4973,18673
4974,7843
4975,7499
4976,7025
4977,7273
4978,1153
4979,1167
4980,1150
4981,1151
4982,7453
4983,7014
4984,1194
4985,1151
4986,6696
4987,1152
4988,18545
4989,6658
4990,6757
4991,1153
4992,7840
4993,7238
4994,6492
4995,7955
4996,18596
4997,7473
4998,7452
4999,18557
5000,7858
5001,24448
5002,18584
5003,7178
5004,18385
5005,6979
5006,18477
5007,7016
5008,1175
5009,1154
5010,1155
5011,1156
5012,1157
5013,18345
5014,1158
5015,1159
5016,7082
5017,1162
5018,6932
5019,6947
5020,1160
5021,6942
5022,6845
5023,18421
5024,3098
5025,1952
5026,7714
5027,1161
5028,6868
5029,6925
5030,18502
5031,1162
5032,1163
5033,6891
5034,7918
5035,18397
5036,18372
5037,1164
5038,1195
5039,7252
5040,7033
5041,6502
5042,1165
5043,1166
5044,7221
5045,18332
5046,6602
5047,8024
5048,1167
5049,7083
5050,1168
5051,1172
5052,1169
5053,1170
5054,1171
5055,1172
5056,1173
5057,1174
5058,1175
5059,18360
5060,1176
5061,5409
5062,7556
5063,7917
5064,6324
5065,1337
5066,1177
5067,1339
5068,6379
5069,6376
5070,6272
5071,18275
5072,1178
5073,5926
5074,1179
5075,24345
5076,1180
5077,5589
5078,5962
5079,6266
5080,1181
5081,18142
5082,5939
5083,7877
5084,7850
5085,1182
5086,18164
5087,18177
5088,18166
5089,1183
5090,7835
5091,18185
5092,18227
5093,19114
5094,1192
5095,1385
5096,1184
5097,1327
5098,5390
5099,1346
5100,6278
5101,19126
5102,6476
5103,6475
5104,1184
5105,1185
5106,1206
5107,6484
5108,19089
5109,19205
5110,19085
5111,19191
5112,1334
5113,18146
5114,18201
5115,1207
5116,1336
5117,18218
5118,18170
5119,5397
5120,7903
5121,1186
5122,1187
5123,6574
5124,1188
5125,17971
5126,5504
5127,7288
5128,7170
5129,1189
5130,1190
5131,5452
5132,5448
5133,1191
5134,6639
5135,18100
5136,1192
5137,7167
5138,1196
5139,18060
5140,1193
5141,18063
5142,1194
5143,18048
5144,18066
5145,1195
5146,1196
5147,7511
5148,7783
5149,7307
5150,5497
5151,1197
5152,5886
5153,5808
5154,7761
5155,5792
5156,1198
5157,5429
5158,1199
5159,1222
5160,1227
5161,6074
5162,1200
5163,1201
5164,5890
5165,1202
5166,1203
5167,1204
5168,18009
5169,1205
5170,5549
5171,1206
5172,1207
5173,1208
5174,1209
5175,1210
5176,1211
5177,1212
5178,7619
5179,1213
5180,7999
5181,1218
5182,1214
5183,6405
5184,1349
5185,1215
5186,5815
5187,1350
5188,9185
5189,9177
5190,9184
5191,1341
5192,1299
5193,7929
5194,6345
5195,5736
5196,1216
5197,9085
5198,1217
5199,6385
5200,5723
5201,1218
5202,9057
5203,1219
5204,1220
5205,8348
5206,9066
5207,1284
5208,1221
5209,1222
5210,24097
5211,8294
5212,1372
5213,1223
5214,1325
5215,8290
5216,1224
5217,6138
5218,1326
5219,1328
5220,1225
5221,1329
5222,1331
5223,18898
5224,1198
5225,6317
5226,8366
5227,8365
5228,7355
5229,9152
5230,6207
5231,1226
5232,9148
5233,1343
5234,16613
5235,1345
5236,1348
5237,5772
5238,1227
5239,5920
5240,6321
5241,1228
5242,1310
5243,5997
5244,9316
5245,1229
5246,6013
5247,6952
5248,6233
5249,17442
5250,9327
5251,1230
5252,1231
5253,1232
5254,17456
5255,25225
5256,7432
5257,1233
5258,1234
5259,5375
5260,9207
5261,1235
5262,24240
5263,1236
5264,9213
5265,5879
5266,5768
5267,1237
5268,9285
5269,1238
5270,5918
5271,5916
5272,1239
5273,1240
5274,5960
5275,5965
5276,9099
5277,9156
5278,1241
5279,6096
5280,17458
5281,5508
5282,1253
5283,5231
5284,5971
5285,5833
5286,1242
5287,1243
5288,1244
5289,5900
5290,5869
5291,5266
5292,1245
5293,9278
5294,17592
5295,6100
5296,1246
5297,1369
5298,1247
5299,1248
5300,1249
5301,1250
5302,1251
5303,1252
5304,3647
5305,1253
5306,3639
5307,7445
5308,1254
5309,981
5310,1025
5311,1255
5312,992
5313,1256
5314,1257
5315,1258
5316,1213
5317,1259
5318,1260
5319,1261
5320,1295
5321,1262
5322,1263
5323,1264
5324,3480
5325,1265
5326,17259
5327,1266
5328,1267
5329,1268
5330,1269
5331,1270
5332,1271
5333,1272
5334,1273
5335,1274
5336,1275
5337,1276
5338,1277
5339,1278
5340,1303
5341,1279
5342,1279
5343,1280
5344,6964
5345,1281
5346,1282
5347,6847
5348,6857
5349,1283
5350,1132
5351,1284
5352,1285
5353,1078
5354,1286
5355,9217
5356,1287
5357,1288
5358,1289
5359,1377
5360,1290
5361,1291
5362,24155
5363,1292
5364,1379
5365,1380
5366,8379
5367,1293
5368,1294
5369,8440
5370,6073
5371,1295
5372,1296
5373,8417
5374,8415
5375,5536
5376,1382
5377,16824
5378,5458
5379,7399
5380,1366
5381,1340
5382,1368
5383,1381
5384,1297
5385,7173
5386,1298
5387,1347
5388,17336
5389,1299
5390,1300
5391,1301
5392,1302
5393,1303
5394,1304
5395,1241
5396,1305
5397,1306
5398,7136
5399,1307
5400,1308
5401,1309
5402,1310
5403,1311
5404,1312
5405,5389
5406,1313
5407,1314
5408,1332
5409,1315
5410,1335
5411,5258
5412,1316
5413,1317
5414,1318
5415,1319
5416,6064
5417,6051
5418,1320
5419,7337
5420,1323
5421,6042
5422,17542
5423,17610
5424,5602
5425,6025
5426,7322
5427,24108
5428,7724
5429,1321
5430,7737
5431,1322
5432,23999
5433,17309
5434,17303
5435,1205
5436,17307
5437,1323
5438,7321
5439,1323
5440,1344
5441,17248
5442,1324
5443,17523
5444,17566
5445,16821
5446,1371
5447,1325
5448,7292
5449,5881
5450,17478
5451,8042
5452,1326
5453,17464
5454,6095
5455,8910
5456,7298
5457,9056
5458,1327
5459,1328
5460,1329
5461,1330
5462,24237
5463,1331
5464,8916
5465,6244
5466,1332
5467,1333
5468,8839
5469,6016
5470,8967
5471,17441
5472,17492
5473,9046
5474,5647
5475,17684
5476,1342
5477,8071
5478,1334
5479,17755
5480,5248
5481,1299
5482,5649
5483,6487
5484,17785
5485,1335
5486,1336
5487,16770
5488,1338
5489,1337
5490,1338
5491,23980
5492,6201
5493,7913
5494,1339
5495,17907
5496,17908
5497,17909
5498,1340
5499,6250
5500,17930
5501,12953
5502,1341
5503,1342
5504,23989
5505,1343
5506,5613
5507,1344
5508,17262
5509,7669
5510,17261
5511,5446
5512,17374
5513,8041
5514,5591
5515,1345
5516,1346
5517,17240
5518,1347
5519,1348
5520,8780
5521,17355
5522,5915
5523,1349
5524,5787
5525,24014
5526,24009
5527,1350
5528,1206
5529,23988
5530,5240
5531,8784
5532,5421
5533,24208
5534,7148
5535,6337
5536,1351
5537,6146
5538,1314
5539,1352
5540,6168
5541,6295
5542,1353
5543,1354
5544,6743
5545,6741
5546,9112
5547,17300
5548,24131
5549,17512
5550,17373
5551,6412
5552,6478
5553,9201
5554,6787
5555,17524
5556,17331
5557,17558
5558,5249
5559,17580
5560,8850
5561,6414
5562,1355
5563,8854
5564,1356
5565,17502
5566,7249
5567,5412
5568,1357
5569,1312
5570,5861
5571,1358
5572,5944
5573,5946
5574,5866
5575,6245
5576,6466
5577,1363
5578,1359
5579,1360
5580,1361
5581,1362
5582,1363
5583,6325
5584,6360
5585,6291
5586,6355
5587,5320
5588,7270
5589,8855
5590,1364
5591,1365
5592,7188
5593,17600
5594,23978
5595,24281
5596,1366
5597,1367
5598,1368
5599,17423
5600,1369
5601,7224
5602,7310
5603,5681
5604,17496
5605,1370
5606,1371
5607,5633
5608,1372
5609,8976
5610,7256
5611,6243
5612,7255
5613,7155
5614,17484
5615,8986
5616,17473
5617,1373
5618,17465
5619,1374
5620,8801
5621,7537
5622,5923
5623,17597
5624,8783
5625,1375
5626,1376
5627,6436
5628,17565
5629,6700
5630,1377
5631,1378
5632,1379
5633,1380
5634,17573
5635,1381
5636,7271
5637,17462
5638,17439
5639,1295
5640,1382
5641,1383
5642,9339
5643,8826
5644,6150
5645,1384
5646,1385
5647,17452
5648,7407
5649,25195
5650,12660
5651,1654
5652,1653
5653,1386
5654,1387
5655,1447
5656,3782
5657,1433
5658,1432
5659,1388
5660,1389
5661,1390
5662,1391
5663,1392
5664,1393
5665,11296
5666,1394
5667,4323
5668,1435
5669,1395
5670,1396
5671,1397
5672,1418
5673,1452
5674,1451
5675,1398
5676,1399
5677,1462
5678,4987
5679,1400
5680,1607
5681,1401
5682,23184
5683,1402
5684,1403
5685,1404
5686,1405
5687,1429
5688,1406
5689,1430
5690,1407
5691,1408
5692,3879
5693,1445
5694,1409
5695,1442
5696,1443
5697,1444
5698,1410
5699,1411
5700,1412
5701,1413
5702,23178
5703,1414
5704,1441
5705,3821
5706,1415
5707,1446
5708,1416
5709,1839
5710,1417
5711,1459
5712,11837
5713,11840
5714,3682
5715,3712
5716,4336
5717,1481
5718,18595
5719,1448
5720,4328
5721,18586
5722,1449
5723,1418
5724,11828
5725,1450
5726,1470
5727,4349
5728,1469
5729,11824
5730,11826
5731,1460
5732,4016
5733,1425
5734,1422
5735,1424
5736,3753
5737,3676
5738,11830
5739,1477
5740,1419
5741,1484
5742,1420
5743,3778
5744,18349
5745,1453
5746,1421
5747,3817
5748,1422
5749,1454
5750,11923
5751,11925
5752,1423
5753,1455
5754,3724
5755,1424
5756,3690
5757,3801
5758,1472
5759,11913
5760,1456
5761,1473
5762,1457
5763,1458
5764,1425
5765,11895
5766,4438
5767,1426
5768,1427
5769,3947
5770,4055
5771,1428
5772,4056
5773,1439
5774,11279
5775,4078
5776,1578
5777,11258
5778,4050
5779,11262
5780,4618
5781,13859
5782,4032
5783,11268
5784,11270
5785,14069
5786,13854
5787,13851
5788,13874
5789,4625
5790,11298
5791,1429
5792,11300
5793,13870
5794,1430
5795,3913
5796,13880
5797,1438
5798,3937
5799,14072
5800,4573
5801,1431
5802,4973
5803,1436
5804,1432
5805,4565
5806,1557
5807,14042
5808,4974
5809,3936
5810,1433
5811,4061
5812,3894
5813,14039
5814,14051
5815,4037
5816,1434
5817,4038
5818,14048
5819,1581
5820,3949
5821,13889
5822,4040
5823,1437
5824,11307
5825,14035
5826,1812
5827,11306
5828,3889
5829,3975
5830,1435
5831,4585
5832,1588
5833,3912
5834,11901
5835,13957
5836,3922
5837,1463
5838,4649
5839,3915
5840,1436
5841,4054
5842,1544
5843,3916
5844,4014
5845,1432
5846,13934
5847,1437
5848,1565
5849,3938
5850,1438
5851,4074
5852,1439
5853,1440
5854,1441
5855,1585
5856,1609
5857,4972
5858,13856
5859,4068
5860,1442
5861,1443
5862,11285
5863,3964
5864,4066
5865,3968
5866,13865
5867,1444
5868,4067
5869,1560
5870,1445
5871,23475
5872,23484
5873,3986
5874,1561
5875,11898
5876,3905
5877,11892
5878,11275
5879,11885
5880,13944
5881,1446
5882,1583
5883,1447
5884,3977
5885,4080
5886,3725
5887,1461
5888,14170
5889,3772
5890,11958
5891,3773
5892,1448
5893,4340
5894,11960
5895,1449
5896,14310
5897,1418
5898,3732
5899,1450
5900,4341
5901,14259
5902,3755
5903,1451
5904,14255
5905,1452
5906,14249
5907,14264
5908,3759
5909,11937
5910,4413
5911,14273
5912,3687
5913,4325
5914,14290
5915,14292
5916,3807
5917,1816
5918,4105
5919,23263
5920,12010
5921,1453
5922,3748
5923,14225
5924,3736
5925,3733
5926,1454
5927,1455
5928,1456
5929,4022
5930,14206
5931,12037
5932,23269
5933,1457
5934,1458
5935,3751
5936,4018
5937,3802
5938,1459
5939,3770
5940,3820
5941,3799
5942,14256
5943,14204
5944,4121
5945,11941
5946,11944
5947,1475
5948,11983
5949,1476
5950,1828
5951,4358
5952,23710
5953,18342
5954,4434
5955,11681
5956,1830
5957,3835
5958,4309
5959,14177
5960,14185
5961,11657
5962,1478
5963,1479
5964,11659
5965,11663
5966,1482
5967,14189
5968,1833
5969,4444
5970,23824
5971,1480
5972,1827
5973,18471
5974,1474
5975,14105
5976,14123
5977,11942
5978,3679
5979,3722
5980,18441
5981,14143
5982,14141
5983,1460
5984,1822
5985,1823
5986,3686
5987,1461
5988,4416
5989,1824
5990,4280
5991,1471
5992,14091
5993,14088
5994,1825
5995,14083
5996,11971
5997,1462
5998,14079
5999,14078
6000,1826
6001,14110
6002,23783
6003,1463
6004,12057
6005,14142
6006,1821
6007,1464
6008,1465
6009,1466
6010,1829
6011,4458
6012,1467
6013,11846
6014,4442
6015,4450
6016,14243
6017,11869
6018,1855
6019,23147
6020,3711
6021,3850
6022,4368
6023,14236
6024,3775
6025,3846
6026,11872
6027,1863
6028,3998
6029,3999
6030,1841
6031,1468
6032,1469
6033,1470
6034,1834
6035,23114
6036,1471
6037,1472
6038,3728
6039,1473
6040,1462
6041,23245
6042,1474
6043,1475
6044,1476
6045,1477
6046,1478
6047,1842
6048,1479
6049,3768
6050,1480
6051,1494
6052,1640
6053,1831
6054,1832
6055,14244
6056,11819
6057,1481
6058,11920
6059,4431
6060,11910
6061,1482
6062,4090
6063,4381
6064,1483
6065,12005
6066,1486
6067,12007
6068,1794
6069,12009
6070,1485
6071,1795
6072,1796
6073,1487
6074,1797
6075,1798
6076,1786
6077,1484
6078,1485
6079,1486
6080,1787
6081,18556
6082,4131
6083,1788
6084,12034
6085,3962
6086,3781
6087,1789
6088,12060
6089,1809
6090,1487
6091,1488
6092,18533
6093,12004
6094,14176
6095,3848
6096,1845
6097,4146
6098,14211
6099,11848
6100,11853
6101,1489
6102,4147
6103,1852
6104,1490
6105,14294
6106,1491
6107,11857
6108,23106
6109,11936
6110,1492
6111,1820
6112,12018
6113,11855
6114,1493
6115,12023
6116,12024
6117,3789
6118,1790
6119,23092
6120,11858
6121,1494
6122,11260
6123,1547
6124,4747
6125,13281
6126,1495
6127,1496
6128,1503
6129,4753
6130,1497
6131,1498
6132,13256
6133,308
6134,1499
6135,1500
6136,1501
6137,1502
6138,1503
6139,1504
6140,4533
6141,1505
6142,1506
6143,4773
6144,13247
6145,13243
6146,1507
6147,1508
6148,13235
6149,307
6150,1503
6151,4551
6152,1509
6153,1510
6154,1511
6155,1512
6156,4811
6157,1514
6158,1513
6159,1514
6160,1515
6161,13193
6162,1516
6163,4762
6164,13188
6165,1517
6166,1518
6167,4764
6168,27721
6169,1519
6170,1520
6171,1521
6172,13268
6173,1522
6174,1523
6175,1524
6176,4763
6177,13259
6178,1525
6179,14457
6180,1526
6181,4784
6182,287
6183,14534
6184,14552
6185,27455
6186,1590
6187,1527
6188,27691
6189,5000
6190,1591
6191,27502
6192,5155
6193,14514
6194,1592
6195,1528
6196,4509
6197,4510
6198,1593
6199,14531
6200,11581
6201,14518
6202,5139
6203,11578
6204,4547
6205,14752
6206,5180
6207,1605
6208,1529
6209,1530
6210,27704
6211,1531
6212,1532
6213,14475
6214,1533
6215,4777
6216,14491
6217,27147
6218,11567
6219,4867
6220,1534
6221,4469
6222,13230
6223,1535
6224,14444
6225,1536
6226,11548
6227,1599
6228,14465
6229,14463
6230,14461
6231,5002
6232,4513
6233,1537
6234,4499
6235,1600
6236,1538
6237,1598
6238,13173
6239,11362
6240,1539
6241,1540
6242,4660
6243,1541
6244,1613
6245,1542
6246,4944
6247,1543
6248,1614
6249,4980
6250,4984
6251,1606
6252,1544
6253,1562
6254,3928
6255,1545
6256,3931
6257,13371
6258,1546
6259,1610
6260,1547
6261,1548
6262,1549
6263,1431
6264,1550
6265,1551
6266,1615
6267,4957
6268,4955
6269,1552
6270,4553
6271,5126
6272,1601
6273,1602
6274,1553
6275,1604
6276,1554
6277,1555
6278,4728
6279,4996
6280,5031
6281,1556
6282,1557
6283,4827
6284,1558
6285,3884
6286,4730
6287,5024
6288,4670
6289,1559
6290,4672
6291,1560
6292,1611
6293,1561
6294,14360
6295,1562
6296,1563
6297,11509
6298,3953
6299,1564
6300,4028
6301,1565
6302,4748
6303,13363
6304,4772
6305,4681
6306,4750
6307,4783
6308,1566
6309,1567
6310,1568
6311,4816
6312,1569
6313,1570
6314,1571
6315,4655
6316,1572
6317,1573
6318,264
6319,1574
6320,13186
6321,1575
6322,13182
6323,1576
6324,1551
6325,13266
6326,11457
6327,4052
6328,1577
6329,3939
6330,4757
6331,1428
6332,3946
6333,1578
6334,1515
6335,4744
6336,1579
6337,3887
6338,1586
6339,1580
6340,12546
6341,1581
6342,13861
6343,13948
6344,3906
6345,1582
6346,4830
6347,1583
6348,13195
6349,1584
6350,1585
6351,1586
6352,1587
6353,4759
6354,1588
6355,1589
6356,5161
6357,14526
6358,1594
6359,1590
6360,1591
6361,14608
6362,5228
6363,1592
6364,5229
6365,1593
6366,4601
6367,5217
6368,4602
6369,1594
6370,4908
6371,4902
6372,1623
6373,4892
6374,1624
6375,4894
6376,5142
6377,11134
6378,1556
6379,14572
6380,5148
6381,1595
6382,1616
6383,1618
6384,14600
6385,5223
6386,14503
6387,4599
6388,1596
6389,1597
6390,1633
6391,5072
6392,5133
6393,14632
6394,1598
6395,5140
6396,1599
6397,11153
6398,4532
6399,4465
6400,14585
6401,4846
6402,5004
6403,11224
6404,14736
6405,1600
6406,5187
6407,11552
6408,14597
6409,23350
6410,1601
6411,1602
6412,1603
6413,1604
6414,4616
6415,5070
6416,14575
6417,1605
6418,1608
6419,13972
6420,1606
6421,4982
6422,1607
6423,4965
6424,11164
6425,11167
6426,1608
6427,13989
6428,1447
6429,1609
6430,11323
6431,4945
6432,4948
6433,4977
6434,11325
6435,14064
6436,14063
6437,11331
6438,4568
6439,4049
6440,4983
6441,11322
6442,1610
6443,11188
6444,1639
6445,5020
6446,14635
6447,4921
6448,11151
6449,1620
6450,14639
6451,14652
6452,4852
6453,14656
6454,4628
6455,1611
6456,4890
6457,4893
6458,11251
6459,4918
6460,1612
6461,1612
6462,4634
6463,4636
6464,1613
6465,4938
6466,1621
6467,4952
6468,4989
6469,14029
6470,1614
6471,14616
6472,1638
6473,1615
6474,14073
6475,14768
6476,23303
6477,1616
6478,4529
6479,5163
6480,1617
6481,1618
6482,11336
6483,11159
6484,4538
6485,14370
6486,14336
6487,14385
6488,4539
6489,5015
6490,5087
6491,5017
6492,14416
6493,11215
6494,14415
6495,11218
6496,5018
6497,14438
6498,1619
6499,1620
6500,14435
6501,14434
6502,1621
6503,14318
6504,1622
6505,11524
6506,1623
6507,1624
6508,4629
6509,1625
6510,11489
6511,11491
6512,14520
6513,11493
6514,14351
6515,11496
6516,14363
6517,1626
6518,4904
6519,11534
6520,4898
6521,1627
6522,14378
6523,14377
6524,1628
6525,11514
6526,11516
6527,4527
6528,11523
6529,14372
6530,4528
6531,14596
6532,5013
6533,4492
6534,14432
6535,11207
6536,11157
6537,14715
6538,11219
6539,5026
6540,1629
6541,14675
6542,11132
6543,1630
6544,4848
6545,11255
6546,4964
6547,14688
6548,290
6549,4943
6550,11146
6551,27506
6552,14682
6553,4488
6554,1631
6555,4875
6556,1632
6557,27563
6558,5212
6559,4951
6560,1633
6561,14413
6562,1634
6563,14694
6564,14698
6565,14431
6566,4473
6567,1635
6568,4861
6569,14396
6570,4864
6571,11512
6572,11240
6573,11246
6574,1636
6575,1637
6576,1638
6577,11206
6578,14388
6579,14387
6580,23349
6581,288
6582,5060
6583,14402
6584,4961
6585,4463
6586,11141
6587,5045
6588,1639
6589,4464
6590,289
6591,5118
6592,4556
6593,1836
6594,1640
6595,1641
6596,4606
6597,1781
6598,5063
6599,1642
6600,8043
6601,1643
6602,4623
6603,5047
6604,4622
6605,7830
6606,4033
6607,4001
6608,3688
6609,1644
6610,16954
6611,8094
6612,1645
6613,4046
6614,4610
6615,1734
6616,1646
6617,1647
6618,1735
6619,1721
6620,4729
6621,1648
6622,1649
6623,1650
6624,4186
6625,1890
6626,1717
6627,1651
6628,1652
6629,1653
6630,1654
6631,1655
6632,3757
6633,1656
6634,1657
6635,1658
6636,1731
6637,1659
6638,1660
6639,7779
6640,7579
6641,4574
6642,1661
6643,1662
6644,1663
6645,4650
6646,1750
6647,1664
6648,1754
6649,1055
6650,7573
6651,5123
6652,3902
6653,8947
6654,4482
6655,2778
6656,8936
6657,8968
6658,8955
6659,8958
6660,1665
6661,8930
6662,1662
6663,1666
6664,1667
6665,1668
6666,4885
6667,8903
6668,4849
6669,8927
6670,4550
6671,1669
6672,9028
6673,1670
6674,16874
6675,4507
6676,4502
6677,1671
6678,1672
6679,8945
6680,1673
6681,1660
6682,1722
6683,4495
6684,1674
6685,18854
6686,1724
6687,8050
6688,5101
6689,1725
6690,3924
6691,3760
6692,4459
6693,4562
6694,1684
6695,7758
6696,1675
6697,4639
6698,7908
6699,1676
6700,1677
6701,1678
6702,4985
6703,4978
6704,1679
6705,4749
6706,7730
6707,8943
6708,1680
6709,1681
6710,1682
6711,1683
6712,4234
6713,4264
6714,4440
6715,4278
6716,1686
6717,1951
6718,1684
6719,1893
6720,1934
6721,1935
6722,4455
6723,1883
6724,1894
6725,1685
6726,1886
6727,1685
6728,1888
6729,4338
6730,1895
6731,22667
6732,4224
6733,19091
6734,1891
6735,1896
6736,1880
6737,4225
6738,4378
6739,1686
6740,18184
6741,7797
6742,18176
6743,1936
6744,1687
6745,4160
6746,1687
6747,1904
6748,1912
6749,4170
6750,1913
6751,1917
6752,18153
6753,19064
6754,1919
6755,1696
6756,4178
6757,1885
6758,18190
6759,1887
6760,4148
6761,7772
6762,19125
6763,4199
6764,4180
6765,1940
6766,1889
6767,18152
6768,4823
6769,1897
6770,19198
6771,19065
6772,4136
6773,4108
6774,3787
6775,1877
6776,1688
6777,1689
6778,4044
6779,1900
6780,4380
6781,1690
6782,1691
6783,1756
6784,4443
6785,4125
6786,1901
6787,1902
6788,1692
6789,1693
6790,1694
6791,1694
6792,5181
6793,1695
6794,4457
6795,1696
6796,4113
6797,1899
6798,4176
6799,19043
6800,4285
6801,1946
6802,19154
6803,1892
6804,1882
6805,1898
6806,4273
6807,1881
6808,1870
6809,1884
6810,1875
6811,4184
6812,4258
6813,19123
6814,1879
6815,1871
6816,4356
6817,1872
6818,1873
6819,4103
6820,1874
6821,4100
6822,4270
6823,19059
6824,3871
6825,4242
6826,1876
6827,1697
6828,1057
6829,8970
6830,2726
6831,1698
6832,18922
6833,1699
6834,4680
6835,1700
6836,18908
6837,2740
6838,9279
6839,16554
6840,1701
6841,1702
6842,4731
6843,5206
6844,9304
6845,9307
6846,1703
6847,1704
6848,3430
6849,1705
6850,9105
6851,1706
6852,18806
6853,18814
6854,3464
6855,1707
6856,2627
6857,16977
6858,1708
6859,1709
6860,1710
6861,9329
6862,1711
6863,9322
6864,1643
6865,2789
6866,1712
6867,1713
6868,5151
6869,2762
6870,1714
6871,22909
6872,2940
6873,2965
6874,4676
6875,2950
6876,1715
6877,4706
6878,9347
6879,1716
6880,1717
6881,5141
6882,9334
6883,1718
6884,9336
6885,2963
6886,1719
6887,1720
6888,4708
6889,1721
6890,9198
6891,9191
6892,2794
6893,18808
6894,1722
6895,16889
6896,17007
6897,9188
6898,1723
6899,9139
6900,18864
6901,22995
6902,1724
6903,1054
6904,4004
6905,18844
6906,9129
6907,1725
6908,18839
6909,9155
6910,3980
6911,9065
6912,1726
6913,1727
6914,1728
6915,1729
6916,3767
6917,18801
6918,18812
6919,1730
6920,9122
6921,19074
6922,1731
6923,3726
6924,19173
6925,3832
6926,9070
6927,19194
6928,9059
6929,9064
6930,1732
6931,3691
6932,22344
6933,1733
6934,3704
6935,3994
6936,1734
6937,5205
6938,4019
6939,4025
6940,3674
6941,2925
6942,18805
6943,1735
6944,2894
6945,18156
6946,2958
6947,2887
6948,1650
6949,8825
6950,1739
6951,1736
6952,3739
6953,1737
6954,1738
6955,8767
6956,1739
6957,8751
6958,1641
6959,1740
6960,8752
6961,18872
6962,1741
6963,3987
6964,8779
6965,23010
6966,4711
6967,4831
6968,5103
6969,16775
6970,1742
6971,1743
6972,8884
6973,1744
6974,7698
6975,4818
6976,1745
6977,7598
6978,4774
6979,19083
6980,5162
6981,1746
6982,8987
6983,4770
6984,1747
6985,1748
6986,1749
6987,1750
6988,1751
6989,1752
6990,22383
6991,9007
6992,3917
6993,4832
6994,4825
6995,1753
6996,1754
6997,8803
6998,1755
6999,3693
7000,8807
7001,1756
7002,4705
7003,1757
7004,1642
7005,1758
7006,4053
7007,1759
7008,1760
7009,1761
7010,3826
7011,3727
7012,1762
7013,1763
7014,9247
7015,9267
7016,1764
7017,1765
7018,1766
7019,4684
7020,18990
7021,1767
7022,5051
7023,4851
7024,9203
7025,8813
7026,4677
7027,1768
7028,1769
7029,9234
7030,1770
7031,9231
7032,2809
7033,1771
7034,1772
7035,1773
7036,1774
7037,1775
7038,1776
7039,2896
7040,1777
7041,22939
7042,4800
7043,8894
7044,2866
7045,2880
7046,1778
7047,1779
7048,4789
7049,1780
7050,8846
7051,2936
7052,1781
7053,9338
7054,1782
7055,8833
7056,4679
7057,9025
7058,1783
7059,2841
7060,8857
7061,1784
7062,1785
7063,1854
7064,4219
7065,4218
7066,4096
7067,1786
7068,4383
7069,11714
7070,4099
7071,11778
7072,18573
7073,1811
7074,11775
7075,1813
7076,3794
7077,11781
7078,1787
7079,18544
7080,1819
7081,11763
7082,1788
7083,1791
7084,4101
7085,1792
7086,18517
7087,4169
7088,18541
7089,1789
7090,1793
7091,11645
7092,18598
7093,11644
7094,4156
7095,11603
7096,11608
7097,11610
7098,18649
7099,23577
7100,3874
7101,3852
7102,1790
7103,4370
7104,18634
7105,18631
7106,18683
7107,4138
7108,4142
7109,3859
7110,1791
7111,1792
7112,1793
7113,1799
7114,1794
7115,1795
7116,1796
7117,1797
7118,1810
7119,1798
7120,11642
7121,1799
7122,18613
7123,3779
7124,11771
7125,1800
7126,1801
7127,1802
7128,1803
7129,1801
7130,4112
7131,18117
7132,4177
7133,1802
7134,1803
7135,11770
7136,1804
7137,4254
7138,1805
7139,4248
7140,11814
7141,11811
7142,4251
7143,18099
7144,11800
7145,11815
7146,11816
7147,4235
7148,1806
7149,1807
7150,4111
7151,1924
7152,1808
7153,1809
7154,18574
7155,4165
7156,1810
7157,4157
7158,1811
7159,3797
7160,1812
7161,18079
7162,18086
7163,1813
7164,3813
7165,4153
7166,18069
7167,4161
7168,1814
7169,1814
7170,4164
7171,1815
7172,18052
7173,4132
7174,1816
7175,23522
7176,1817
7177,4116
7178,1818
7179,1819
7180,1820
7181,11601
7182,3867
7183,1858
7184,1859
7185,1860
7186,18374
7187,4415
7188,1821
7189,18404
7190,3803
7191,1822
7192,1823
7193,1824
7194,4317
7195,1825
7196,1826
7197,23899
7198,18420
7199,1827
7200,18417
7201,14086
7202,1828
7203,1829
7204,1830
7205,11656
7206,14082
7207,18430
7208,11625
7209,11619
7210,3818
7211,3697
7212,3860
7213,14150
7214,1831
7215,4359
7216,1832
7217,3713
7218,3795
7219,1856
7220,14287
7221,3786
7222,4377
7223,14164
7224,1833
7225,4373
7226,4417
7227,4376
7228,11692
7229,11695
7230,3717
7231,14157
7232,1857
7233,18444
7234,1834
7235,23833
7236,3710
7237,1866
7238,14161
7239,1835
7240,4331
7241,1836
7242,4145
7243,1837
7244,1838
7245,1839
7246,1840
7247,1841
7248,1842
7249,18403
7250,4307
7251,1843
7252,3833
7253,1844
7254,3834
7255,1845
7256,11623
7257,1846
7258,1847
7259,1848
7260,1849
7261,1850
7262,1851
7263,1852
7264,11598
7265,18386
7266,18644
7267,1853
7268,3836
7269,18668
7270,4287
7271,23877
7272,1854
7273,4372
7274,1855
7275,18504
7276,14108
7277,4342
7278,18648
7279,11705
7280,1856
7281,4343
7282,3843
7283,3721
7284,1857
7285,1858
7286,4296
7287,1859
7288,18346
7289,1860
7290,23818
7291,1861
7292,18344
7293,1862
7294,1863
7295,1864
7296,1865
7297,1866
7298,1867
7299,1868
7300,1869
7301,1870
7302,1871
7303,1878
7304,1872
7305,1873
7306,1874
7307,7603
7308,1875
7309,7814
7310,3819
7311,1876
7312,1877
7313,1878
7314,17994
7315,1947
7316,1878
7317,4198
7318,17956
7319,17970
7320,7864
7321,1948
7322,1879
7323,7847
7324,17965
7325,1880
7326,1881
7327,8053
7328,22624
7329,1882
7330,1883
7331,1884
7332,1885
7333,1886
7334,8076
7335,1903
7336,1887
7337,1888
7338,4282
7339,4350
7340,4405
7341,4369
7342,17963
7343,1889
7344,1890
7345,1891
7346,4290
7347,4411
7348,1892
7349,1893
7350,1894
7351,19100
7352,1895
7353,1896
7354,1897
7355,1898
7356,8081
7357,7993
7358,7971
7359,1899
7360,18238
7361,4189
7362,1900
7363,3868
7364,18232
7365,18303
7366,4192
7367,18317
7368,3788
7369,18319
7370,3870
7371,3866
7372,18296
7373,4241
7374,22534
7375,1938
7376,22571
7377,18287
7378,1901
7379,18182
7380,1937
7381,18284
7382,22626
7383,1902
7384,1930
7385,18239
7386,22393
7387,3855
7388,18267
7389,7874
7390,3776
7391,18033
7392,4221
7393,22665
7394,3861
7395,8004
7396,4208
7397,1949
7398,17997
7399,18015
7400,4301
7401,3863
7402,1903
7403,18010
7404,18262
7405,23634
7406,18261
7407,1950
7408,3847
7409,4337
7410,23636
7411,18256
7412,3809
7413,7618
7414,18271
7415,4281
7416,4155
7417,4355
7418,8045
7419,11734
7420,4261
7421,1904
7422,17986
7423,1905
7424,1906
7425,4423
7426,1907
7427,1908
7428,1909
7429,1910
7430,4421
7431,1911
7432,1912
7433,1913
7434,1914
7435,11726
7436,11741
7437,4191
7438,1915
7439,1916
7440,1917
7441,1918
7442,1919
7443,1920
7444,23698
7445,1926
7446,17973
7447,17976
7448,18098
7449,1921
7450,11818
7451,1921
7452,18095
7453,11789
7454,4255
7455,11794
7456,11797
7457,1922
7458,18111
7459,1922
7460,1923
7461,11799
7462,4271
7463,4107
7464,1925
7465,1924
7466,4267
7467,11729
7468,17995
7469,4266
7470,1925
7471,11730
7472,4276
7473,1926
7474,1927
7475,4300
7476,1928
7477,1929
7478,1933
7479,1930
7480,7741
7481,1684
7482,4424
7483,4227
7484,4291
7485,1931
7486,7572
7487,1932
7488,7792
7489,7760
7490,7591
7491,7576
7492,4344
7493,4414
7494,7569
7495,4346
7496,1933
7497,1934
7498,22606
7499,1935
7500,4269
7501,1936
7502,7751
7503,1937
7504,1938
7505,4441
7506,7738
7507,1939
7508,1940
7509,1941
7510,4231
7511,1942
7512,11746
7513,1943
7514,4214
7515,4193
7516,11728
7517,4206
7518,1897
7519,1944
7520,1945
7521,1946
7522,1947
7523,4119
7524,1948
7525,4089
7526,7719
7527,1949
7528,3808
7529,1950
7530,18223
7531,4175
7532,7731
7533,1951
7534,2326
7535,1952
7536,1953
7537,1954
7538,4607
7539,2290
7540,10806
7541,1955
7542,17449
7543,9589
7544,2024
7545,2605
7546,2331
7547,2108
7548,13741
7549,1956
7550,2471
7551,1957
7552,6258
7553,5274
7554,4567
7555,13742
7556,1958
7557,1989
7558,1959
7559,2075
7560,1960
7561,1961
7562,6237
7563,18911
7564,2041
7565,2425
7566,1962
7567,14306
7568,2282
7569,1963
7570,1967
7571,14305
7572,2098
7573,2148
7574,2102
7575,1964
7576,1965
7577,2445
7578,18155
7579,2322
7580,3611
7581,1966
7582,1967
7583,1968
7584,1969
7585,18899
7586,3641
7587,18953
7588,8639
7589,18211
7590,2618
7591,1970
7592,1971
7593,4048
7594,13272
7595,4030
7596,1972
7597,1973
7598,4429
7599,5245
7600,2427
7601,2649
7602,18150
7603,13738
7604,1974
7605,4076
7606,1996
7607,2116
7608,17508
7609,2247
7610,1975
7611,4118
7612,2093
7613,13758
7614,10805
7615,17950
7616,5937
7617,5961
7618,17421
7619,1981
7620,2078
7621,2063
7622,1976
7623,6807
7624,3210
7625,2272
7626,2038
7627,12957
7628,1977
7629,3483
7630,1978
7631,1979
7632,5377
7633,14311
7634,6030
7635,2273
7636,9745
7637,9746
7638,1980
7639,18202
7640,4196
7641,13770
7642,2414
7643,2079
7644,2255
7645,2077
7646,1981
7647,13783
7648,4994
7649,8907
7650,2313
7651,2422
7652,1982
7653,1983
7654,1984
7655,14297
7656,13784
7657,6540
7658,2360
7659,3209
7660,20715
7661,2092
7662,1985
7663,18526
7664,2064
7665,1986
7666,14417
7667,4641
7668,1987
7669,1988
7670,2361
7671,6024
7672,1989
7673,1990
7674,2257
7675,2351
7676,1991
7677,6774
7678,8602
7679,1992
7680,10907
7681,1993
7682,3489
7683,6804
7684,1994
7685,18522
7686,10950
7687,17434
7688,2387
7689,1995
7690,2010
7691,2527
7692,19049
7693,2179
7694,3531
7695,1996
7696,2518
7697,17510
7698,2001
7699,12992
7700,14139
7701,1997
7702,2259
7703,6202
7704,8073
7705,3575
7706,2004
7707,12762
7708,2596
7709,18217
7710,17280
7711,1998
7712,8008
7713,17314
7714,14134
7715,1999
7716,6028
7717,8222
7718,2039
7719,20506
7720,19003
7721,18695
7722,2000
7723,4797
7724,2007
7725,2001
7726,2043
7727,2011
7728,2002
7729,2056
7730,2003
7731,13255
7732,2004
7733,4802
7734,5345
7735,8772
7736,7693
7737,2005
7738,2610
7739,5844
7740,6450
7741,2006
7742,2007
7743,2008
7744,8255
7745,6335
7746,2089
7747,2009
7748,7833
7749,2010
7750,3589
7751,8017
7752,2574
7753,17830
7754,2298
7755,2236
7756,2606
7757,2011
7758,2012
7759,2001
7760,2013
7761,2014
7762,8231
7763,8296
7764,2015
7765,2016
7766,2017
7767,2753
7768,2018
7769,2062
7770,2019
7771,2020
7772,2234
7773,2182
7774,5098
7775,13750
7776,2813
7777,17250
7778,6145
7779,2500
7780,2572
7781,2449
7782,2021
7783,14271
7784,6649
7785,9563
7786,2026
7787,9565
7788,2022
7789,5006
7790,6403
7791,2023
7792,4598
7793,18893
7794,2036
7795,2024
7796,18194
7797,14258
7798,4801
7799,2025
7800,2027
7801,16642
7802,7527
7803,2323
7804,2026
7805,2027
7806,6314
7807,18550
7808,14247
7809,20625
7810,2028
7811,18958
7812,21611
7813,14335
7814,2806
7815,2029
7816,18672
7817,11427
7818,2551
7819,2030
7820,8663
7821,2149
7822,2031
7823,6416
7824,4352
7825,2164
7826,4135
7827,2542
7828,2032
7829,6203
7830,8223
7831,2151
7832,7684
7833,2033
7834,18189
7835,2034
7836,2026
7837,18316
7838,3976
7839,2035
7840,2036
7841,2037
7842,3425
7843,11445
7844,6135
7845,19894
7846,2147
7847,8851
7848,2399
7849,9660
7850,2038
7851,2039
7852,2110
7853,2040
7854,2041
7855,5580
7856,2042
7857,2129
7858,2152
7859,3851
7860,2428
7861,2043
7862,5769
7863,12720
7864,14670
7865,6736
7866,4154
7867,18103
7868,12638
7869,2044
7870,2219
7871,12639
7872,2119
7873,2438
7874,2531
7875,9605
7876,2045
7877,9011
7878,2330
7879,17038
7880,2614
7881,13914
7882,3854
7883,12307
7884,14668
7885,2048
7886,18143
7887,17864
7888,2423
7889,2588
7890,2385
7891,7879
7892,3095
7893,4525
7894,7596
7895,2424
7896,2046
7897,2055
7898,17034
7899,7567
7900,2528
7901,2047
7902,2407
7903,16622
7904,2569
7905,2552
7906,2048
7907,17415
7908,11617
7909,13402
7910,2049
7911,2559
7912,8679
7913,12647
7914,13411
7915,2402
7916,12791
7917,6793
7918,13040
7919,2213
7920,18073
7921,18046
7922,2339
7923,2432
7924,2050
7925,2417
7926,2051
7927,17974
7928,2113
7929,2052
7930,20698
7931,2053
7932,9326
7933,12337
7934,2054
7935,2055
7936,17042
7937,13463
7938,3895
7939,2523
7940,2398
7941,4144
7942,12688
7943,17498
7944,2056
7945,18948
7946,2057
7947,5583
7948,7561
7949,5689
7950,2400
7951,5622
7952,2220
7953,2557
7954,12319
7955,2587
7956,4912
7957,2343
7958,13466
7959,2930
7960,3824
7961,2337
7962,14684
7963,8743
7964,18931
7965,5144
7966,10455
7967,4204
7968,17503
7969,2058
7970,5755
7971,4195
7972,12313
7973,4140
7974,18881
7975,2761
7976,2338
7977,5520
7978,2059
7979,2593
7980,17348
7981,16917
7982,5405
7983,2363
7984,2060
7985,9678
7986,17030
7987,13055
7988,3837
7989,14240
7990,2061
7991,2062
7992,2063
7993,2064
7994,2378
7995,6579
7996,18942
7997,13059
7998,2262
7999,2612
8000,2158
8001,17489
8002,2310
8003,3063
8004,4230
8005,2065
8006,12712
8007,2505
8008,2915
8009,2911
8010,16911
8011,2066
8012,2067
8013,5777
8014,18930
8015,9019
8016,2547
8017,2068
8018,9735
8019,2069
8020,6293
8021,2105
8022,2070
8023,2071
8024,2405
8025,14398
8026,2114
8027,10429
8028,2553
8029,8034
8030,9586
8031,2072
8032,2390
8033,17020
8034,4592
8035,2838
8036,2327
8037,6541
8038,6118
8039,2180
8040,4675
8041,2311
8042,4232
8043,1981
8044,4102
8045,9136
8046,2073
8047,5466
8048,14409
8049,2198
8050,4188
8051,7689
8052,2074
8053,2075
8054,2088
8055,18195
8056,6573
8057,2076
8058,2077
8059,18294
8060,2404
8061,2212
8062,9752
8063,2127
8064,3735
8065,2078
8066,3203
8067,2808
8068,12956
8069,6344
8070,2081
8071,6751
8072,2079
8073,2080
8074,4166
8075,19646
8076,2081
8077,2555
8078,6226
8079,2701
8080,3497
8081,2082
8082,11639
8083,2392
8084,2112
8085,2107
8086,17419
8087,2083
8088,14284
8089,5355
8090,3549
8091,2334
8092,2084
8093,5436
8094,3080
8095,2416
8096,2085
8097,3716
8098,12790
8099,2086
8100,2087
8101,2474
8102,3695
8103,2091
8104,2510
8105,2088
8106,2089
8107,2090
8108,12856
8109,2091
8110,16988
8111,2092
8112,6283
8113,6767
8114,2106
8115,2093
8116,2094
8117,4543
8118,14710
8119,2095
8120,2096
8121,2097
8122,2098
8123,2099
8124,14711
8125,2100
8126,17052
8127,2101
8128,2538
8129,4217
8130,20971
8131,2102
8132,9141
8133,2368
8134,2185
8135,2103
8136,2104
8137,3058
8138,3754
8139,12971
8140,2616
8141,2105
8142,2865
8143,2376
8144,2453
8145,13265
8146,2586
8147,2583
8148,2106
8149,2107
8150,14209
8151,18594
8152,2174
8153,4486
8154,2269
8155,5528
8156,3056
8157,2108
8158,13460
8159,2109
8160,7329
8161,17613
8162,3609
8163,2110
8164,13011
8165,5625
8166,2844
8167,10801
8168,4215
8169,8610
8170,2111
8171,2465
8172,2112
8173,13497
8174,2113
8175,2362
8176,8637
8177,3475
8178,3407
8179,2136
8180,19056
8181,2309
8182,2115
8183,7217
8184,2133
8185,2155
8186,4808
8187,2114
8188,4805
8189,4907
8190,19055
8191,12397
8192,19539
8193,12420
8194,2125
8195,3311
8196,2270
8197,11025
8198,20927
8199,2264
8200,2121
8201,2130
8202,18509
8203,7348
8204,2752
8205,12486
8206,2115
8207,2175
8208,13726
8209,13147
8210,2704
8211,2132
8212,17535
8213,2190
8214,10765
8215,11481
8216,2116
8217,3412
8218,2172
8219,4798
8220,13700
8221,14456
8222,17550
8223,2117
8224,17295
8225,2468
8226,2117
8227,20861
8228,4919
8229,4642
8230,6004
8231,2466
8232,2299
8233,4548
8234,2171
8235,11504
8236,6440
8237,20352
8238,6123
8239,2163
8240,19048
8241,2267
8242,2118
8243,8211
8244,2119
8245,17644
8246,2283
8247,2120
8248,17315
8249,2121
8250,6401
8251,7181
8252,5143
8253,18775
8254,2184
8255,2122
8256,12115
8257,7434
8258,4833
8259,2201
8260,2123
8261,2124
8262,2125
8263,17554
8264,3478
8265,14513
8266,17914
8267,2493
8268,2406
8269,2126
8270,12441
8271,2183
8272,2127
8273,19141
8274,2128
8275,7305
8276,2598
8277,2364
8278,6375
8279,2154
8280,2129
8281,5887
8282,5204
8283,2603
8284,17927
8285,2207
8286,2396
8287,20250
8288,2130
8289,10703
8290,5007
8291,2131
8292,2401
8293,2178
8294,14506
8295,2537
8296,2159
8297,2132
8298,2133
8299,5116
8300,4842
8301,5111
8302,18488
8303,7435
8304,2134
8305,6583
8306,2502
8307,2496
8308,20388
8309,2135
8310,8202
8311,14502
8312,2624
8313,2136
8314,2550
8315,2137
8316,7160
8317,11227
8318,9559
8319,2138
8320,6129
8321,5129
8322,2139
8323,19150
8324,7183
8325,18497
8326,8150
8327,2140
8328,2268
8329,11410
8330,3511
8331,7424
8332,2141
8333,4922
8334,2142
8335,2143
8336,10678
8337,2144
8338,2145
8339,2160
8340,18863
8341,2146
8342,12163
8343,2169
8344,2147
8345,18811
8346,5905
8347,2266
8348,2148
8349,2149
8350,18804
8351,2394
8352,2150
8353,18737
8354,5871
8355,3361
8356,2151
8357,3386
8358,2152
8359,2153
8360,2154
8361,2166
8362,2155
8363,6358
8364,2156
8365,2156
8366,2157
8367,11584
8368,2158
8369,20252
8370,2159
8371,2258
8372,18861
8373,18868
8374,8383
8375,2288
8376,2160
8377,2161
8378,2448
8379,8374
8380,3671
8381,2162
8382,2163
8383,3393
8384,18828
8385,2164
8386,18821
8387,18731
8388,2165
8389,12133
8390,18457
8391,3650
8392,13084
8393,2295
8394,16831
8395,2279
8396,11557
8397,2166
8398,4897
8399,13077
8400,19186
8401,2199
8402,2167
8403,2168
8404,5164
8405,3342
8406,2187
8407,2160
8408,13078
8409,11156
8410,17288
8411,2169
8412,2747
8413,17884
8414,2173
8415,4871
8416,2170
8417,8865
8418,5012
8419,2171
8420,2710
8421,4707
8422,8179
8423,20128
8424,2172
8425,6395
8426,2173
8427,2688
8428,2177
8429,16774
8430,19088
8431,2174
8432,13068
8433,8177
8434,4847
8435,5863
8436,5910
8437,13693
8438,4646
8439,18776
8440,2175
8441,2176
8442,14451
8443,12090
8444,11060
8445,2177
8446,7336
8447,2178
8448,2179
8449,3421
8450,18361
8451,18829
8452,13102
8453,19093
8454,2180
8455,2181
8456,6366
8457,7497
8458,2727
8459,4841
8460,2182
8461,5933
8462,2183
8463,18838
8464,2184
8465,2185
8466,7406
8467,19179
8468,2186
8469,5005
8470,2187
8471,12300
8472,12138
8473,18407
8474,5948
8475,20207
8476,2188
8477,5137
8478,2475
8479,8192
8480,12436
8481,4470
8482,18744
8483,20845
8484,7179
8485,2286
8486,2189
8487,2261
8488,14541
8489,2439
8490,18875
8491,4787
8492,12257
8493,12425
8494,20581
8495,6010
8496,2190
8497,2191
8498,2192
8499,3600
8500,2826
8501,2193
8502,2194
8503,2195
8504,2196
8505,2924
8506,2197
8507,2198
8508,2224
8509,7457
8510,5305
8511,2199
8512,9406
8513,2200
8514,17716
8515,2201
8516,3952
8517,2202
8518,2277
8519,2318
8520,2203
8521,2204
8522,2217
8523,2205
8524,2206
8525,2787
8526,14096
8527,2207
8528,19983
8529,3958
8530,14184
8531,18792
8532,21964
8533,4518
8534,8244
8535,2214
8536,7101
8537,2208
8538,2492
8539,2239
8540,2209
8541,2210
8542,17723
8543,3565
8544,2211
8545,9386
8546,2636
8547,2285
8548,20041
8549,13659
8550,9639
8551,4460
8552,11147
8553,2106
8554,6031
8555,2238
8556,18389
8557,2212
8558,2215
8559,2213
8560,18755
8561,11077
8562,2214
8563,2215
8564,2216
8565,9624
8566,2217
8567,2218
8568,20610
8569,6046
8570,20818
8571,2284
8572,21819
8573,2219
8574,13246
8575,2303
8576,2220
8577,13227
8578,17708
8579,19172
8580,2221
8581,2222
8582,2223
8583,6418
8584,5932
8585,2224
8586,2225
8587,2226
8588,2294
8589,2227
8590,2300
8591,2228
8592,2229
8593,2230
8594,3669
8595,2231
8596,5695
8597,7486
8598,14089
8599,12159
8600,2240
8601,2232
8602,7559
8603,2233
8604,20222
8605,2234
8606,2321
8607,2297
8608,3397
8609,2235
8610,14099
8611,2236
8612,13801
8613,9663
8614,5856
8615,2237
8616,2304
8617,7277
8618,2238
8619,17836
8620,2239
8621,2240
8622,18969
8623,2253
8624,4559
8625,18994
8626,19413
8627,8329
8628,2241
8629,2242
8630,2248
8631,2243
8632,2244
8633,2251
8634,2245
8635,2246
8636,2247
8637,2248
8638,8310
8639,2249
8640,2250
8641,2336
8642,6415
8643,2256
8644,8960
8645,2609
8646,21459
8647,5867
8648,2251
8649,2517
8650,5839
8651,2252
8652,2253
8653,2254
8654,4545
8655,2957
8656,2255
8657,6367
8658,2590
8659,2256
8660,4873
8661,4615
8662,19104
8663,2257
8664,4879
8665,5071
8666,3328
8667,5889
8668,5984
8669,2258
8670,11198
8671,12107
8672,19901
8673,4838
8674,5502
8675,2305
8676,13136
8677,2259
8678,2260
8679,14441
8680,2261
8681,14500
8682,14524
8683,4611
8684,2463
8685,2289
8686,12174
8687,11230
8688,2262
8689,2263
8690,5493
8691,5191
8692,10798
8693,13621
8694,2264
8695,3354
8696,3571
8697,2265
8698,2266
8699,2267
8700,20256
8701,14555
8702,2268
8703,4467
8704,4858
8705,13092
8706,10729
8707,2581
8708,3435
8709,7326
8710,2269
8711,5073
8712,5611
8713,2270
8714,13158
8715,2271
8716,7872
8717,2272
8718,5976
8719,4520
8720,2273
8721,18751
8722,4870
8723,2274
8724,2302
8725,19877
8726,3890
8727,6011
8728,13713
8729,4720
8730,2431
8731,2426
8732,8969
8733,2275
8734,2281
8735,8148
8736,2276
8737,2293
8738,2277
8739,21835
8740,3372
8741,11377
8742,5089
8743,7244
8744,5540
8745,2607
8746,2278
8747,5885
8748,13130
8749,6398
8750,2279
8751,18965
8752,17775
8753,6008
8754,6038
8755,12748
8756,2280
8757,7754
8758,7716
8759,5986
8760,2281
8761,2282
8762,2283
8763,2284
8764,2529
8765,2285
8766,2286
8767,2287
8768,5972
8769,2288
8770,3306
8771,2289
8772,2290
8773,5042
8774,2291
8775,2292
8776,2293
8777,10846
8778,18200
8779,2294
8780,2295
8781,2296
8782,2297
8783,2670
8784,2372
8785,2459
8786,11115
8787,20867
8788,2298
8789,16733
8790,11232
8791,7488
8792,2299
8793,4853
8794,2300
8795,6050
8796,2301
8797,5102
8798,4586
8799,2302
8800,7523
8801,7518
8802,9431
8803,2303
8804,2304
8805,14354
8806,6009
8807,5130
8808,17532
8809,2305
8810,2306
8811,2307
8812,2308
8813,5214
8814,5547
8815,2548
8816,4104
8817,3741
8818,4220
8819,17131
8820,2309
8821,14043
8822,3911
8823,12603
8824,20455
8825,2310
8826,14573
8827,10425
8828,17745
8829,6791
8830,9086
8831,5105
8832,2311
8833,2312
8834,11912
8835,13523
8836,14037
8837,2313
8838,2314
8839,5134
8840,4678
8841,4117
8842,7222
8843,2315
8844,11861
8845,9867
8846,21010
8847,2316
8848,9832
8849,5929
8850,2602
8851,2317
8852,17133
8853,11749
8854,5687
8855,10547
8856,14587
8857,10423
8858,14563
8859,2382
8860,2347
8861,2318
8862,9312
8863,9365
8864,10414
8865,2709
8866,6713
8867,12506
8868,2464
8869,13885
8870,17118
8871,2319
8872,2320
8873,2632
8874,6871
8875,2358
8876,6271
8877,2540
8878,17143
8879,13888
8880,2356
8881,6978
8882,2585
8883,2377
8884,9778
8885,4662
8886,18023
8887,11847
8888,2560
8889,3252
8890,14056
8891,5127
8892,2321
8893,10468
8894,4321
8895,6889
8896,6559
8897,2733
8898,4367
8899,11873
8900,11712
8901,11744
8902,2383
8903,2611
8904,5040
8905,2322
8906,2323
8907,10159
8908,4126
8909,2324
8910,6862
8911,6989
8912,6830
8913,5332
8914,5607
8915,2325
8916,2469
8917,16879
8918,8129
8919,2326
8920,2461
8921,3220
8922,2327
8923,13370
8924,2328
8925,2329
8926,20449
8927,2444
8928,2330
8929,7090
8930,6977
8931,2331
8932,2332
8933,9276
8934,9283
8935,9292
8936,2063
8937,2868
8938,2333
8939,4041
8940,9857
8941,3765
8942,6881
8943,3749
8944,21013
8945,6525
8946,2473
8947,11129
8948,9293
8949,2591
8950,2334
8951,2335
8952,10577
8953,4936
8954,2336
8955,2337
8956,9481
8957,4036
8958,6310
8959,10165
8960,2338
8961,2339
8962,4669
8963,18043
8964,2434
8965,14566
8966,17074
8967,10434
8968,2340
8969,2341
8970,11916
8971,12069
8972,11747
8973,2342
8974,2343
8975,2344
8976,2354
8977,3144
8978,10362
8979,4371
8980,2345
8981,17455
8982,2346
8983,13220
8984,7100
8985,4448
8986,2347
8987,3222
8988,2348
8989,2349
8990,2509
8991,5752
8992,17139
8993,2350
8994,2351
8995,9314
8996,2352
8997,2353
8998,3217
8999,13222
9000,9975
9001,2354
9002,2355
9003,2356
9004,17105
9005,7022
9006,7690
9007,2354
9008,3969
9009,19990
9010,7104
9011,8477
9012,2357
9013,4883
9014,2358
9015,2359
9016,2360
9017,20642
9018,14591
9019,21704
9020,2777
9021,2504
9022,2361
9023,2362
9024,12737
9025,13297
9026,4402
9027,2363
9028,12775
9029,2364
9030,2365
9031,2660
9032,2366
9033,2482
9034,9335
9035,3243
9036,13302
9037,4807
9038,2367
9039,18685
9040,2041
9041,2368
9042,2388
9043,2369
9044,2370
9045,2371
9046,3888
9047,5498
9048,9107
9049,4694
9050,2372
9051,4363
9052,4794
9053,14041
9054,18802
9055,3079
9056,2526
9057,2410
9058,2373
9059,5793
9060,2476
9061,2374
9062,2375
9063,6494
9064,2376
9065,10460
9066,17081
9067,11877
9068,17467
9069,11874
9070,14569
9071,2532
9072,2377
9073,9784
9074,2378
9075,2338
9076,9606
9077,9171
9078,14604
9079,2379
9080,10664
9081,17050
9082,11289
9083,2380
9084,2381
9085,4874
9086,11762
9087,2384
9088,5697
9089,2382
9090,3085
9091,2383
9092,16795
9093,7263
9094,2384
9095,4005
9096,2385
9097,6251
9098,7545
9099,2386
9100,11836
9101,2387
9102,2388
9103,8500
9104,2389
9105,10621
9106,11843
9107,10384
9108,9814
9109,2010
9110,17145
9111,14036
9112,12560
9113,2592
9114,17726
9115,13605
9116,13573
9117,22219
9118,4901
9119,6527
9120,6208
9121,2568
9122,6836
9123,16703
9124,10541
9125,2390
9126,2391
9127,2418
9128,22179
9129,4617
9130,13348
9131,21179
9132,2392
9133,15925
9134,2393
9135,18511
9136,10198
9137,20565
9138,17267
9139,2394
9140,6933
9141,13543
9142,2395
9143,16707
9144,2396
9145,2397
9146,2398
9147,11652
9148,14620
9149,13539
9150,16585
9151,6744
9152,3153
9153,2399
9154,2400
9155,17256
9156,2401
9157,10288
9158,2402
9159,22099
9160,2403
9161,7631
9162,2524
9163,10239
9164,2404
9165,10334
9166,3703
9167,2488
9168,13384
9169,2405
9170,8538
9171,11724
9172,10218
9173,17387
9174,2406
9175,2407
9176,4223
9177,2408
9178,18508
9179,2409
9180,2410
9181,6590
9182,17200
9183,2411
9184,7120
9185,14657
9186,16691
9187,2412
9188,2413
9189,2414
9190,2577
9191,2462
9192,2415
9193,2416
9194,2417
9195,10043
9196,14009
9197,21176
9198,16782
9199,11777
9200,16871
9201,10012
9202,14005
9203,2418
9204,13392
9205,16882
9206,18498
9207,11796
9208,2419
9209,17168
9210,3699
9211,20759
9212,2421
9213,2641
9214,2062
9215,13390
9216,2420
9217,10523
9218,16690
9219,5325
9220,2421
9221,19246
9222,4120
9223,2422
9224,11975
9225,18540
9226,13351
9227,2423
9228,2424
9229,4211
9230,2425
9231,2426
9232,11715
9233,2427
9234,10613
9235,13375
9236,16776
9237,2428
9238,2429
9239,10037
9240,16714
9241,11731
9242,6879
9243,6624
9244,3319
9245,10047
9246,16709
9247,10268
9248,6790
9249,2430
9250,8533
9251,2431
9252,3853
9253,6297
9254,2432
9255,2433
9256,2434
9257,2435
9258,16812
9259,2436
9260,2437
9261,6954
9262,11635
9263,17291
9264,18490
9265,2438
9266,11647
9267,2439
9268,2440
9269,17201
9270,2441
9271,2442
9272,5241
9273,4673
9274,2443
9275,20798
9276,3715
9277,21073
9278,11675
9279,2444
9280,8560
9281,2445
9282,17962
9283,2446
9284,3262
9285,5307
9286,5064
9287,5296
9288,20019
9289,2499
9290,2447
9291,2089
9292,2448
9293,6991
9294,2567
9295,5278
9296,16639
9297,8549
9298,2449
9299,4659
9300,2450
9301,2451
9302,2452
9303,2479
9304,2460
9305,2456
9306,4426
9307,13987
9308,2453
9309,5293
9310,2454
9311,2455
9312,13984
9313,2456
9314,2457
9315,9466
9316,10092
9317,2458
9318,2459
9319,16592
9320,2514
9321,9464
9322,3185
9323,2460
9324,2461
9325,2462
9326,3857
9327,2463
9328,2464
9329,11053
9330,3747
9331,16607
9332,2465
9333,14066
9334,2466
9335,2467
9336,13887
9337,7012
9338,2468
9339,17190
9340,3276
9341,21164
9342,6897
9343,17026
9344,16617
9345,17341
9346,5781
9347,2469
9348,4365
9349,11711
9350,5347
9351,3184
9352,10540
9353,6708
9354,2470
9355,2471
9356,2472
9357,2480
9358,2543
9359,16749
9360,2473
9361,2474
9362,18350
9363,13995
9364,2475
9365,2490
9366,4334
9367,14002
9368,17645
9369,6196
9370,2476
9371,3318
9372,2477
9373,7070
9374,4210
9375,3740
9376,3200
9377,5783
9378,5338
9379,20812
9380,2478
9381,5260
9382,18369
9383,9110
9384,10147
9385,17396
9386,2479
9387,2549
9388,2480
9389,11660
9390,8537
9391,4391
9392,4353
9393,3312
9394,7328
9395,2481
9396,3322
9397,2482
9398,2565
9399,3689
9400,2483
9401,10562
9402,2484
9403,9060
9404,16657
9405,2485
9406,2541
9407,5215
9408,2486
9409,2489
9410,9492
9411,6887
9412,3856
9413,2487
9414,3683
9415,2539
9416,22272
9417,2520
9418,17525
9419,2488
9420,2489
9421,7008
9422,17894
9423,7020
9424,9432
9425,3234
9426,2490
9427,5486
9428,2491
9429,2973
9430,13026
9431,4333
9432,2492
9433,2493
9434,2494
9435,6996
9436,22185
9437,18632
9438,13184
9439,13015
9440,11345
9441,4077
9442,2561
9443,2495
9444,13458
9445,3896
9446,2496
9447,17917
9448,13414
9449,14730
9450,9931
9451,2497
9452,2579
9453,13960
9454,20412
9455,2498
9456,13920
9457,2689
9458,9200
9459,8844
9460,2722
9461,2511
9462,13947
9463,2499
9464,2500
9465,2533
9466,2501
9467,2502
9468,5158
9469,11346
9470,2503
9471,2504
9472,2505
9473,6522
9474,2766
9475,2599
9476,2506
9477,18071
9478,18629
9479,9807
9480,2507
9481,2508
9482,2584
9483,2509
9484,4286
9485,2510
9486,2511
9487,5298
9488,3823
9489,2512
9490,2513
9491,2514
9492,2984
9493,4292
9494,2515
9495,19716
9496,4866
9497,2516
9498,9236
9499,2842
9500,17507
9501,2517
9502,2518
9503,7935
9504,2519
9505,2520
9506,2521
9507,13319
9508,13025
9509,13455
9510,4335
9511,9948
9512,2522
9513,7026
9514,2523
9515,13868
9516,3827
9517,2524
9518,13027
9519,3019
9520,2525
9521,2526
9522,2527
9523,7107
9524,7615
9525,2951
9526,5402
9527,2528
9528,2529
9529,5331
9530,2530
9531,2589
9532,2531
9533,2532
9534,12355
9535,2533
9536,5424
9537,2056
9538,2534
9539,2535
9540,2536
9541,2537
9542,2538
9543,22301
9544,3929
9545,2539
9546,2615
9547,18603
9548,2540
9549,2541
9550,2542
9551,2543
9552,2544
9553,2545
9554,2546
9555,2547
9556,10977
9557,6586
9558,18588
9559,11950
9560,11194
9561,17340
9562,16974
9563,13172
9564,5159
9565,2548
9566,13433
9567,4769
9568,2549
9569,2550
9570,17476
9571,2043
9572,12361
9573,8891
9574,2551
9575,2552
9576,17317
9577,2553
9578,2554
9579,2555
9580,2556
9581,2557
9582,2595
9583,5383
9584,21085
9585,2558
9586,13404
9587,13871
9588,12885
9589,13413
9590,2975
9591,9898
9592,2127
9593,2559
9594,8694
9595,18580
9596,16975
9597,13034
9598,4451
9599,2560
9600,13035
9601,2561
9602,2562
9603,2563
9604,2564
9605,8684
9606,2664
9607,7695
9608,5629
9609,2565
9610,2566
9611,12637
9612,4522
9613,4330
9614,2949
9615,5496
9616,2567
9617,3036
9618,4876
9619,2568
9620,14726
9621,11319
9622,2569
9623,2570
9624,19632
9625,20734
9626,14749
9627,2571
9628,2572
9629,17318
9630,2573
9631,4088
9632,2574
9633,17480
9634,17801
9635,3943
9636,5603
9637,2575
9638,12821
9639,18121
9640,5396
9641,18518
9642,2576
9643,16932
9644,9934
9645,9677
9646,2577
9647,2578
9648,7936
9649,6808
9650,2579
9651,2580
9652,9368
9653,6519
9654,9340
9655,5842
9656,2581
9657,7194
9658,13488
9659,2582
9660,2583
9661,2584
9662,5403
9663,4315
9664,3044
9665,11282
9666,2585
9667,20229
9668,18031
9669,2586
9670,18035
9671,2587
9672,2588
9673,6515
9674,2589
9675,7135
9676,4776
9677,5379
9678,2236
9679,3048
9680,2590
9681,4850
9682,5022
9683,2591
9684,2592
9685,8449
9686,7200
9687,8792
9688,4437
9689,9261
9690,2593
9691,17479
9692,10391
9693,3118
9694,2608
9695,4318
9696,3060
9697,11284
9698,2594
9699,2595
9700,2596
9701,4256
9702,4668
9703,16532
9704,2597
9705,5411
9706,10976
9707,4305
9708,2598
9709,2599
9710,2600
9711,3026
9712,13501
9713,3050
9714,7264
9715,2601
9716,2602
9717,2603
9718,9986
9719,12751
9720,10897
9721,2604
9722,2605
9723,2606
9724,18042
9725,3814
9726,16825
9727,2607
9728,13192
9729,17871
9730,13212
9731,11595
9732,2608
9733,2609
9734,2991
9735,2610
9736,2599
9737,17320
9738,12693
9739,9728
9740,3099
9741,18258
9742,4959
9743,3966
9744,13577
9745,13915
9746,6090
9747,2611
9748,5685
9749,6531
9750,2612
9751,2613
9752,2614
9753,12623
9754,3784
9755,3113
9756,4821
9757,6187
9758,9393
9759,14721
9760,13493
9761,2615
9762,12680
9763,2616
9764,2617
9765,2618
9766,2619
9767,12759
9768,2620
9769,1719
9770,12995
9771,2621
9772,2741
9773,12299
9774,2622
9775,2623
9776,341
9777,2624
9778,2625
9779,2626
9780,16855
9781,2627
9782,28270
9783,2628
9784,2828
9785,2629
9786,2729
9787,5121
9788,271
9789,2630
9790,17116
9791,273
9792,2631
9793,2173
9794,2632
9795,2633
9796,2634
9797,2224
9798,2635
9799,7056
9800,2636
9801,2922
9802,2637
9803,329
9804,2906
9805,12888
9806,5208
9807,5210
9808,8396
9809,27252
9810,28503
9811,2638
9812,2639
9813,12770
9814,2640
9815,12921
9816,27223
9817,12893
9818,2641
9819,2642
9820,28313
9821,12134
9822,3343
9823,13065
9824,2643
9825,13107
9826,28351
9827,2644
9828,464
9829,2645
9830,13096
9831,2646
9832,13709
9833,8341
9834,2916
9835,2647
9836,28342
9837,2648
9838,2918
9839,2649
9840,2650
9841,2651
9842,1702
9843,2648
9844,17242
9845,2652
9846,2653
9847,13624
9848,335
9849,2923
9850,13685
9851,13622
9852,2654
9853,3417
9854,4468
9855,2655
9856,2656
9857,2657
9858,2658
9859,2199
9860,12914
9861,12961
9862,2672
9863,2659
9864,13630
9865,2825
9866,2660
9867,12097
9868,2661
9869,13105
9870,2662
9871,12807
9872,8388
9873,2663
9874,4713
9875,13712
9876,2684
9877,2780
9878,12767
9879,12806
9880,2800
9881,2664
9882,2665
9883,454
9884,2875
9885,467
9886,12811
9887,25028
9888,28337
9889,2666
9890,2699
9891,2667
9892,9082
9893,2664
9894,2668
9895,12714
9896,2669
9897,28392
9898,2670
9899,2711
9900,8170
9901,16647
9902,2671
9903,2672
9904,2673
9905,2674
9906,12845
9907,2224
9908,8759
9909,2675
9910,2676
9911,4485
9912,2702
9913,2677
9914,8300
9915,12202
9916,2678
9917,2679
9918,2680
9919,13632
9920,2681
9921,13643
9922,2682
9923,2625
9924,13045
9925,2683
9926,2684
9927,2629
9928,2685
9929,2837
9930,16568
9931,2686
9932,2687
9933,3394
9934,3664
9935,16550
9936,2688
9937,2805
9938,2689
9939,4635
9940,2690
9941,2691
9942,2692
9943,12766
9944,2693
9945,445
9946,13041
9947,2694
9948,2695
9949,25005
9950,2696
9951,17178
9952,2697
9953,2698
9954,2694
9955,2699
9956,13664
9957,27378
9958,2700
9959,2338
9960,17161
9961,12147
9962,2701
9963,28272
9964,2702
9965,2703
9966,5088
9967,17129
9968,386
9969,3585
9970,2704
9971,2705
9972,2706
9973,4910
9974,1715
9975,2707
9976,13636
9977,2708
9978,281
9979,17115
9980,2709
9981,2710
9982,442
9983,27305
9984,12597
9985,7077
9986,2711
9987,2712
9988,399
9989,28534
9990,2713
9991,13691
9992,12193
9993,2714
9994,3588
9995,18337
9996,25029
9997,5221
9998,5094
9999,12733
10000,5068
10001,27375
10002,2715
10003,2716
10004,271
10005,3586
10006,2683
10007,20924
10008,2717
10009,2718
10010,2719
10011,2720
10012,9068
10013,2721
10014,13731
10015,18061
10016,8210
10017,17322
10018,2722
10019,2723
10020,2724
10021,2725
10022,13048
10023,27220
10024,5074
10025,2726
10026,12970
10027,2727
10028,2723
10029,12596
10030,2722
10031,2944
10032,13061
10033,8201
10034,8197
10035,12758
10036,2728
10037,2729
10038,2644
10039,8414
10040,2247
10041,398
10042,12757
10043,2730
10044,12607
10045,17142
10046,2731
10047,2732
10048,5008
10049,2733
10050,2734
10051,2735
10052,2736
10053,27080
10054,16549
10055,2737
10056,2738
10057,2739
10058,17132
10059,2740
10060,2741
10061,13715
10062,24993
10063,12772
10064,2742
10065,2743
10066,12997
10067,2744
10068,2745
10069,12833
10070,2746
10071,13679
10072,1715
10073,12233
10074,462
10075,20836
10076,2747
10077,16570
10078,2748
10079,16636
10080,16808
10081,2749
10082,2750
10083,8421
10084,12973
10085,2751
10086,17325
10087,16582
10088,2752
10089,4751
10090,2753
10091,1642
10092,2754
10093,2755
10094,12615
10095,2756
10096,2757
10097,5186
10098,17111
10099,2758
10100,4500
10101,28375
10102,2759
10103,2760
10104,2761
10105,4733
10106,2762
10107,16654
10108,18624
10109,4742
10110,2763
10111,12832
10112,12850
10113,2764
10114,2785
10115,4933
10116,2765
10117,12922
10118,2766
10119,2765
10120,5177
10121,2767
10122,2768
10123,2769
10124,2770
10125,2771
10126,2772
10127,2821
10128,12951
10129,2773
10130,8303
10131,13116
10132,2774
10133,3395
10134,2802
10135,16675
10136,27242
10137,13826
10138,2775
10139,4674
10140,2776
10141,12932
10142,265
10143,2777
10144,2778
10145,8353
10146,2779
10147,6900
10148,9170
10149,2780
10150,2781
10151,16641
10152,2782
10153,2783
10154,3653
10155,2784
10156,2773
10157,2785
10158,16649
10159,16591
10160,28537
10161,27244
10162,2285
10163,16594
10164,2786
10165,2787
10166,12910
10167,1703
10168,24920
10169,2788
10170,12905
10171,13113
10172,27275
10173,9088
10174,12943
10175,3377
10176,1701
10177,17286
10178,13133
10179,18756
10180,2789
10181,12903
10182,13815
10183,16552
10184,12736
10185,12706
10186,2790
10187,378
10188,8438
10189,13818
10190,2791
10191,13159
10192,453
10193,2823
10194,1137
10195,2792
10196,2847
10197,12195
10198,2793
10199,2794
10200,12270
10201,18639
10202,468
10203,2795
10204,4854
10205,12740
10206,2796
10207,453
10208,2797
10209,2776
10210,17097
10211,2798
10212,20689
10213,18519
10214,2912
10215,17237
10216,2799
10217,8285
10218,2800
10219,2801
10220,8427
10221,2802
10222,2372
10223,12859
10224,12860
10225,2803
10226,2804
10227,2805
10228,2806
10229,2510
10230,28402
10231,2807
10232,16668
10233,13111
10234,5182
10235,28268
10236,2808
10237,13156
10238,2809
10239,2914
10240,404
10241,2810
10242,1574
10243,2811
10244,13091
10245,2812
10246,12732
10247,4696
10248,2878
10249,3885
10250,12967
10251,12931
10252,8331
10253,24921
10254,2813
10255,2814
10256,28370
10257,2815
10258,2816
10259,12746
10260,2817
10261,12823
10262,12982
10263,12934
10264,16669
10265,1643
10266,2817
10267,2818
10268,13831
10269,8288
10270,13833
10271,18666
10272,2819
10273,2820
10274,2821
10275,9175
10276,13684
10277,2889
10278,18555
10279,12768
10280,2822
10281,12958
10282,2823
10283,12223
10284,17301
10285,2824
10286,28374
10287,17306
10288,2831
10289,2825
10290,2826
10291,2827
10292,2828
10293,2829
10294,2830
10295,2831
10296,2832
10297,1136
10298,16679
10299,13823
10300,2833
10301,12847
10302,2824
10303,2834
10304,13146
10305,2835
10306,404
10307,2836
10308,2837
10309,2838
10310,2839
10311,2840
10312,17366
10313,2841
10314,3389
10315,20742
10316,2842
10317,2843
10318,2842
10319,12938
10320,2844
10321,2845
10322,2846
10323,16583
10324,12844
10325,2847
10326,2848
10327,17304
10328,28261
10329,1643
10330,18670
10331,18642
10332,2606
10333,2849
10334,2850
10335,2851
10336,2852
10337,2853
10338,13038
10339,2854
10340,2855
10341,2856
10342,2857
10343,2858
10344,2027
10345,1669
10346,3574
10347,2859
10348,2860
10349,25010
10350,13663
10351,2861
10352,2862
10353,13169
10354,2863
10355,13005
10356,2864
10357,25009
10358,16516
10359,12889
10360,2852
10361,16777
10362,2865
10363,2866
10364,5156
10365,2867
10366,2868
10367,2869
10368,3410
10369,20954
10370,2870
10371,2871
10372,2872
10373,2873
10374,18592
10375,2874
10376,2875
10377,2876
10378,2877
10379,2878
10380,2879
10381,2880
10382,2881
10383,2882
10384,2883
10385,1139
10386,2884
10387,12886
10388,12898
10389,2885
10390,2886
10391,2887
10392,28291
10393,2888
10394,16529
10395,2889
10396,12793
10397,3592
10398,12869
10399,27345
10400,12809
10401,16528
10402,2890
10403,2891
10404,16526
10405,4007
10406,2960
10407,12929
10408,3415
10409,2892
10410,2893
10411,12792
10412,1575
10413,12211
10414,2894
10415,2895
10416,12203
10417,2927
10418,406
10419,13733
10420,2896
10421,12868
10422,13003
10423,1712
10424,13662
10425,2780
10426,1723
10427,2897
10428,13018
10429,2898
10430,2899
10431,259
10432,2900
10433,13002
10434,20889
10435,2901
10436,12817
10437,2902
10438,2693
10439,12998
10440,2903
10441,2904
10442,332
10443,22829
10444,12966
10445,21767
10446,13017
10447,12799
10448,13806
10449,2905
10450,2906
10451,2907
10452,2908
10453,2909
10454,28225
10455,2910
10456,468
10457,13807
10458,2911
10459,2912
10460,12878
10461,2913
10462,2914
10463,2915
10464,2916
10465,3399
10466,328
10467,13655
10468,16616
10469,2917
10470,2918
10471,13117
10472,2919
10473,12578
10474,2920
10475,2921
10476,2922
10477,2923
10478,2924
10479,2925
10480,2926
10481,2927
10482,2928
10483,27289
10484,2929
10485,13698
10486,12818
10487,28399
10488,2930
10489,2931
10490,2932
10491,28220
10492,1781
10493,4719
10494,12731
10495,2933
10496,28221
10497,2934
10498,2935
10499,2936
10500,2937
10501,24907
10502,27324
10503,1729
10504,20900
10505,2938
10506,2925
10507,2939
10508,2940
10509,8307
10510,8358
10511,2941
10512,2942
10513,8376
10514,2943
10515,2944
10516,27231
10517,2945
10518,2946
10519,4546
10520,2947
10521,2948
10522,465
10523,16621
10524,12788
10525,2949
10526,12773
10527,2950
10528,2951
10529,2952
10530,2953
10531,2954
10532,12263
10533,12220
10534,9150
10535,2955
10536,2956
10537,13651
10538,2957
10539,4475
10540,12864
10541,2958
10542,2766
10543,12827
10544,2959
10545,2960
10546,2961
10547,2962
10548,1723
10549,5174
10550,12756
10551,13103
10552,2963
10553,2964
10554,2213
10555,2965
10556,12246
10557,456
10558,403
10559,2966
10560,1139
10561,2967
10562,12786
10563,8363
10564,2769
10565,7047
10566,2968
10567,2969
10568,3271
10569,6759
10570,2970
10571,2971
10572,2972
10573,2973
10574,12465
10575,12468
10576,12333
10577,2974
10578,16359
10579,3355
10580,2975
10581,2976
10582,16685
10583,2977
10584,2978
10585,2979
10586,2980
10587,19230
10588,28040
10589,16331
10590,9933
10591,3451
10592,8506
10593,12301
10594,2981
10595,989
10596,2982
10597,3452
10598,2988
10599,2983
10600,2984
10601,3454
10602,2985
10603,2986
10604,28050
10605,2987
10606,12327
10607,2988
10608,17235
10609,2989
10610,20760
10611,2990
10612,12378
10613,2991
10614,2992
10615,15757
10616,2993
10617,3170
10618,2994
10619,15774
10620,2995
10621,25861
10622,2996
10623,3137
10624,8470
10625,3138
10626,2997
10627,79
10628,12478
10629,2998
10630,15742
10631,47
10632,12491
10633,13961
10634,71
10635,21595
10636,12494
10637,16705
10638,3002
10639,12477
10640,8447
10641,16043
10642,2999
10643,3000
10644,3537
10645,3001
10646,12347
10647,16744
10648,28174
10649,12458
10650,15768
10651,12459
10652,15766
10653,3543
10654,8475
10655,3002
10656,8703
10657,3196
10658,3003
10659,3004
10660,20757
10661,313
10662,16762
10663,3005
10664,3006
10665,3007
10666,17720
10667,3008
10668,3009
10669,3010
10670,3011
10671,17705
10672,3012
10673,13490
10674,3347
10675,3013
10676,3014
10677,3327
10678,19431
10679,3351
10680,3015
10681,25385
10682,3016
10683,3017
10684,3018
10685,12354
10686,3019
10687,3020
10688,3021
10689,3022
10690,13421
10691,13904
10692,13
10693,3023
10694,973
10695,3607
10696,12367
10697,17445
10698,13491
10699,3024
10700,3025
10701,3026
10702,19385
10703,8465
10704,12
10705,3027
10706,12
10707,3028
10708,2615
10709,3029
10710,15737
10711,15960
10712,28099
10713,13875
10714,3030
10715,17497
10716,962
10717,51
10718,3031
10719,17422
10720,23
10721,3032
10722,8683
10723,20755
10724,3033
10725,28031
10726,3034
10727,3035
10728,16722
10729,3036
10730,3037
10731,24676
10732,16
10733,51
10734,3038
10735,3039
10736,3040
10737,9964
10738,3041
10739,17683
10740,3042
10741,12305
10742,3043
10743,16032
10744,3446
10745,3044
10746,3045
10747,3046
10748,12338
10749,8701
10750,16355
10751,13860
10752,3047
10753,3048
10754,28028
10755,13850
10756,8696
10757,989
10758,3049
10759,369
10760,3050
10761,3051
10762,3241
10763,8534
10764,3117
10765,3052
10766,3053
10767,3054
10768,3055
10769,3056
10770,18
10771,3057
10772,3058
10773,2198
10774,3059
10775,6580
10776,3060
10777,1095
10778,3058
10779,24846
10780,3061
10781,28136
10782,3062
10783,3061
10784,28155
10785,3063
10786,3235
10787,3064
10788,6578
10789,13911
10790,8515
10791,3065
10792,64
10793,3066
10794,64
10795,14223
10796,3067
10797,3223
10798,6635
10799,8541
10800,3068
10801,20684
10802,8740
10803,28153
10804,15663
10805,15650
10806,3069
10807,192
10808,15647
10809,3069
10810,3070
10811,12304
10812,3071
10813,3072
10814,15710
10815,3073
10816,3157
10817,3596
10818,12348
10819,17490
10820,3074
10821,15717
10822,3075
10823,1091
10824,12479
10825,78
10826,3076
10827,3077
10828,3078
10829,20743
10830,3079
10831,27880
10832,3080
10833,3081
10834,28139
10835,3155
10836,12324
10837,15638
10838,3082
10839,17463
10840,349
10841,965
10842,14230
10843,3083
10844,15992
10845,12473
10846,3084
10847,3085
10848,15936
10849,15716
10850,3086
10851,3087
10852,8539
10853,3088
10854,3049
10855,15673
10856,28118
10857,6551
10858,20710
10859,12449
10860,3089
10861,15822
10862,3090
10863,12412
10864,3091
10865,12501
10866,15884
10867,75
10868,15812
10869,15832
10870,3092
10871,75
10872,3093
10873,24842
10874,3094
10875,3095
10876,8712
10877,16750
10878,3096
10879,3132
10880,3131
10881,3097
10882,25952
10883,15671
10884,16721
10885,3098
10886,3099
10887,3100
10888,3101
10889,2975
10890,3102
10891,17680
10892,25310
10893,3103
10894,16715
10895,3104
10896,3350
10897,3105
10898,8554
10899,3127
10900,3089
10901,3528
10902,3106
10903,15708
10904,74
10905,13922
10906,6518
10907,3119
10908,6621
10909,3107
10910,12329
10911,3108
10912,3109
10913,30
10914,3110
10915,15652
10916,3255
10917,3111
10918,8518
10919,3112
10920,17616
10921,2584
10922,14227
10923,3113
10924,3114
10925,28124
10926,21587
10927,3115
10928,3116
10929,14228
10930,15841
10931,3108
10932,3117
10933,3118
10934,8503
10935,3119
10936,3120
10937,28192
10938,3148
10939,24799
10940,12416
10941,8574
10942,3121
10943,3122
10944,12373
10945,8575
10946,2360
10947,73
10948,3257
10949,3118
10950,3123
10951,3124
10952,15795
10953,3092
10954,12497
10955,17856
10956,12380
10957,3125
10958,3126
10959,3127
10960,2462
10961,3128
10962,3129
10963,3130
10964,3131
10965,8635
10966,2462
10967,8625
10968,17765
10969,3132
10970,25293
10971,3134
10972,21116
10973,19242
10974,6316
10975,3133
10976,3134
10977,3135
10978,17670
10979,10007
10980,19526
10981,9958
10982,3136
10983,24807
10984,247
10985,3137
10986,25265
10987,3161
10988,3138
10989,3139
10990,3140
10991,3141
10992,3142
10993,3143
10994,21113
10995,7063
10996,3144
10997,3145
10998,3146
10999,6784
11000,3146
11001,3141
11002,3147
11003,3148
11004,17677
11005,15648
11006,3149
11007,3150
11008,17607
11009,3151
11010,3152
11011,3153
11012,6849
11013,3154
11014,9992
11015,17924
11016,3155
11017,3156
11018,8646
11019,10137
11020,3157
11021,8469
11022,6308
11023,3272
11024,3156
11025,3216
11026,10129
11027,3158
11028,3159
11029,3291
11030,3160
11031,8644
11032,3161
11033,6946
11034,8657
11035,3162
11036,3163
11037,976
11038,248
11039,3164
11040,3165
11041,3166
11042,8659
11043,3233
11044,10152
11045,3140
11046,3167
11047,25983
11048,3168
11049,3169
11050,7091
11051,3170
11052,3144
11053,9960
11054,13997
11055,17867
11056,3171
11057,236
11058,25878
11059,60
11060,25852
11061,3172
11062,3173
11063,9962
11064,19367
11065,6156
11066,31
11067,3174
11068,9804
11069,10058
11070,6657
11071,6653
11072,3660
11073,3175
11074,9969
11075,21193
11076,3176
11077,10019
11078,3177
11079,2378
11080,3178
11081,3179
11082,3180
11083,3181
11084,3182
11085,6182
11086,1257
11087,3183
11088,3184
11089,9961
11090,3185
11091,3186
11092,56
11093,3179
11094,3187
11095,14000
11096,3103
11097,984
11098,3188
11099,3205
11100,3189
11101,14013
11102,6680
11103,3190
11104,3191
11105,3192
11106,13996
11107,10230
11108,3193
11109,3194
11110,3195
11111,15999
11112,2987
11113,3196
11114,3135
11115,3197
11116,3198
11117,3199
11118,3200
11119,17663
11120,3201
11121,25877
11122,13971
11123,3202
11124,3203
11125,3204
11126,9963
11127,3205
11128,7013
11129,3206
11130,3207
11131,8548
11132,8219
11133,3208
11134,14027
11135,3209
11136,15787
11137,14020
11138,3210
11139,3211
11140,6231
11141,6685
11142,3212
11143,3213
11144,8240
11145,1033
11146,17881
11147,3214
11148,3011
11149,3021
11150,3215
11151,17669
11152,3216
11153,197
11154,3217
11155,3218
11156,3219
11157,9952
11158,3220
11159,28077
11160,8710
11161,3242
11162,3226
11163,3221
11164,3662
11165,3222
11166,3223
11167,17579
11168,3224
11169,3569
11170,12365
11171,9803
11172,3225
11173,3226
11174,3633
11175,3227
11176,3228
11177,3229
11178,3659
11179,15698
11180,25954
11181,9939
11182,2356
11183,3230
11184,20767
11185,3231
11186,3232
11187,8485
11188,3645
11189,3233
11190,3234
11191,12388
11192,3582
11193,3626
11194,28083
11195,3235
11196,3505
11197,3587
11198,3236
11199,28097
11200,10241
11201,3237
11202,17872
11203,3603
11204,12371
11205,3238
11206,3239
11207,3240
11208,3241
11209,3242
11210,17685
11211,3243
11212,12374
11213,3244
11214,28103
11215,28105
11216,8731
11217,3608
11218,3245
11219,17703
11220,28017
11221,12393
11222,17728
11223,24
11224,3246
11225,3590
11226,12356
11227,17860
11228,3247
11229,3248
11230,12353
11231,3249
11232,8732
11233,3250
11234,3617
11235,3250
11236,62
11237,3251
11238,3619
11239,12359
11240,12369
11241,3252
11242,3253
11243,5410
11244,3254
11245,14047
11246,3255
11247,3256
11248,9951
11249,17608
11250,3257
11251,3258
11252,17603
11253,17611
11254,8595
11255,3259
11256,3260
11257,17781
11258,3261
11259,3262
11260,9893
11261,3263
11262,3264
11263,6235
11264,3265
11265,2460
11266,17634
11267,3266
11268,3267
11269,26012
11270,2444
11271,3268
11272,3269
11273,8555
11274,8599
11275,3270
11276,3159
11277,3271
11278,3272
11279,3273
11280,8723
11281,8517
11282,8717
11283,3135
11284,3274
11285,3630
11286,3274
11287,1040
11288,26009
11289,9912
11290,80
11291,9926
11292,3275
11293,3275
11294,3276
11295,3277
11296,3278
11297,3279
11298,25961
11299,3280
11300,8452
11301,9946
11302,3281
11303,3282
11304,3521
11305,3507
11306,3283
11307,25970
11308,13544
11309,3284
11310,9942
11311,8484
11312,8725
11313,3285
11314,3286
11315,8451
11316,49
11317,14054
11318,3287
11319,1038
11320,9841
11321,3519
11322,8552
11323,3288
11324,25297
11325,3652
11326,1038
11327,3289
11328,3290
11329,3291
11330,3292
11331,3502
11332,195
11333,9855
11334,3293
11335,8605
11336,3294
11337,8606
11338,3295
11339,48
11340,3296
11341,3297
11342,9903
11343,3298
11344,20819
11345,3299
11346,3300
11347,3301
11348,6998
11349,3005
11350,3302
11351,28426
11352,3303
11353,13504
11354,3349
11355,3304
11356,344
11357,13500
11358,3305
11359,313
11360,3306
11361,18418
11362,3307
11363,12116
11364,3308
11365,3309
11366,20877
11367,2279
11368,3309
11369,20876
11370,3298
11371,3310
11372,3315
11373,323
11374,3311
11375,28490
11376,3312
11377,13773
11378,3313
11379,365
11380,3314
11381,13412
11382,3315
11383,3380
11384,3316
11385,3317
11386,3318
11387,3319
11388,2155
11389,8612
11390,3320
11391,13494
11392,12099
11393,12109
11394,3363
11395,21555
11396,3321
11397,362
11398,3322
11399,8234
11400,3323
11401,13475
11402,3324
11403,3325
11404,3326
11405,3327
11406,3328
11407,3329
11408,3330
11409,13769
11410,13763
11411,3331
11412,3369
11413,8232
11414,13778
11415,3321
11416,28453
11417,3384
11418,12078
11419,372
11420,21550
11421,0
11422,1088
11423,8655
11424,3332
11425,3333
11426,3334
11427,3335
11428,3336
11429,12135
11430,3337
11431,3338
11432,3339
11433,3340
11434,28445
11435,3341
11436,17544
11437,13486
11438,13482
11439,3352
11440,1080
11441,3342
11442,3343
11443,16684
11444,3344
11445,13427
11446,3345
11447,8588
11448,3346
11449,3347
11450,13456
11451,13444
11452,13426
11453,14188
11454,13591
11455,3348
11456,13505
11457,3349
11458,3350
11459,3351
11460,3311
11461,3352
11462,320
11463,3353
11464,3354
11465,3355
11466,3356
11467,2747
11468,3367
11469,8613
11470,13492
11471,3357
11472,3362
11473,3358
11474,347
11475,3359
11476,3360
11477,3361
11478,3006
11479,1089
11480,12108
11481,3362
11482,3665
11483,3363
11484,28003
11485,8603
11486,3364
11487,3365
11488,3366
11489,3367
11490,28497
11491,3368
11492,13588
11493,3369
11494,3370
11495,3371
11496,3383
11497,3372
11498,8153
11499,3373
11500,321
11501,16755
11502,3374
11503,24732
11504,17511
11505,3524
11506,3499
11507,12265
11508,3375
11509,3376
11510,18452
11511,7037
11512,13484
11513,13415
11514,7036
11515,3377
11516,3378
11517,3379
11518,12123
11519,325
11520,3380
11521,21544
11522,3067
11523,13400
11524,3381
11525,3382
11526,3383
11527,13422
11528,2288
11529,3384
11530,12401
11531,986
11532,3385
11533,28412
11534,12104
11535,3414
11536,8592
11537,372
11538,12120
11539,17563
11540,3386
11541,3387
11542,3388
11543,12271
11544,12232
11545,12238
11546,3424
11547,3389
11548,3390
11549,12240
11550,3391
11551,3392
11552,3393
11553,3394
11554,3395
11555,5202
11556,3396
11557,3397
11558,3398
11559,18515
11560,463
11561,12282
11562,18375
11563,3399
11564,12231
11565,18408
11566,3400
11567,18333
11568,3401
11569,5201
11570,16852
11571,16866
11572,3402
11573,3403
11574,16857
11575,1266
11576,20856
11577,20840
11578,12187
11579,3404
11580,12226
11581,24962
11582,3405
11583,3406
11584,3407
11585,6641
11586,3407
11587,3408
11588,8159
11589,3409
11590,3410
11591,3411
11592,3412
11593,8248
11594,451
11595,3413
11596,1667
11597,3418
11598,3414
11599,16791
11600,3415
11601,3416
11602,3417
11603,8162
11604,3418
11605,3419
11606,2645
11607,3420
11608,3421
11609,2645
11610,16826
11611,3411
11612,3422
11613,3423
11614,13810
11615,3424
11616,3425
11617,3426
11618,3474
11619,24976
11620,28516
11621,28513
11622,12143
11623,3427
11624,3428
11625,3467
11626,3429
11627,3430
11628,3431
11629,3432
11630,21728
11631,12182
11632,3433
11633,3433
11634,24975
11635,3461
11636,16870
11637,8273
11638,16868
11639,25002
11640,3434
11641,3435
11642,8207
11643,12417
11644,334
11645,3436
11646,28573
11647,18482
11648,3437
11649,3438
11650,3439
11651,8217
11652,3440
11653,3441
11654,3442
11655,3443
11656,3444
11657,3444
11658,3636
11659,7048
11660,3445
11661,3446
11662,8213
11663,3447
11664,3363
11665,3325
11666,3649
11667,3448
11668,13474
11669,3449
11670,13616
11671,3450
11672,18510
11673,3348
11674,3451
11675,3452
11676,3453
11677,3454
11678,20858
11679,13744
11680,18472
11681,3455
11682,20873
11683,3456
11684,12247
11685,3457
11686,3458
11687,3459
11688,2712
11689,3460
11690,3461
11691,3462
11692,12437
11693,3463
11694,8630
11695,3464
11696,16837
11697,3465
11698,13841
11699,2199
11700,12291
11701,8237
11702,12242
11703,3466
11704,28592
11705,20833
11706,28588
11707,3467
11708,3468
11709,3461
11710,7105
11711,12126
11712,3398
11713,3461
11714,20882
11715,12404
11716,3469
11717,3470
11718,3471
11719,443
11720,2902
11721,3415
11722,2654
11723,8176
11724,3472
11725,3473
11726,3474
11727,2711
11728,3475
11729,3476
11730,3477
11731,3478
11732,18429
11733,3479
11734,27871
11735,3480
11736,3481
11737,3482
11738,8446
11739,12405
11740,3483
11741,2116
11742,13533
11743,3016
11744,346
11745,8242
11746,3484
11747,45
11748,16026
11749,3483
11750,3485
11751,12406
11752,12438
11753,3486
11754,3487
11755,12443
11756,3488
11757,3489
11758,3490
11759,8474
11760,3491
11761,8235
11762,3492
11763,3493
11764,3494
11765,3495
11766,16037
11767,345
11768,15967
11769,3496
11770,16011
11771,3497
11772,3547
11773,13517
11774,28053
11775,3498
11776,3499
11777,3500
11778,3500
11779,27858
11780,3501
11781,3502
11782,198
11783,3503
11784,3504
11785,16033
11786,20940
11787,3505
11788,3506
11789,8490
11790,3507
11791,3508
11792,3509
11793,3510
11794,12435
11795,14298
11796,44
11797,3511
11798,3512
11799,3637
11800,24674
11801,3513
11802,3514
11803,8487
11804,16006
11805,27972
11806,3515
11807,3516
11808,3489
11809,1098
11810,3517
11811,3644
11812,3195
11813,46
11814,196
11815,15705
11816,3518
11817,6626
11818,3519
11819,3520
11820,12430
11821,368
11822,21610
11823,3521
11824,3489
11825,28211
11826,3522
11827,27979
11828,6612
11829,13597
11830,3523
11831,3524
11832,3525
11833,3526
11834,3527
11835,15697
11836,16699
11837,2997
11838,8722
