,partition,vertex
0,49,1145
1,2,1161
2,100,1298
3,0,1359
4,112,1381
5,34,1405
6,34,1445
7,17,1461
8,8,1483
9,108,1543
10,12,1551
11,90,1554
12,119,1557
13,4,1560
14,125,1573
15,131,1587
16,204,1596
17,94,1622
18,35,1636
19,7,1668
20,79,1687
21,35,1748
22,123,1762
23,214,1791
24,13,1817
25,87,1849
26,137,1884
27,4,1899
28,130,1917
29,83,1933
30,217,1945
31,220,1948
32,113,50591
33,129,50612
34,181,50634
35,34,50643
36,35,50644
37,92,50703
38,83,50711
39,79,50738
40,24,50778
41,185,50785
42,198,50830
43,55,50855
44,98,50861
45,73,50972
46,28,50993
47,45,51009
48,118,51071
49,16,51091
50,207,51112
51,213,51194
52,130,51207
53,64,51209
54,53,51221
55,104,51225
56,140,51230
57,62,51265
58,4,51280
59,86,51289
60,22,51307
61,54,51314
62,99,51337
63,97,51378
64,173,37516
65,99,37523
66,19,37527
67,117,37531
68,61,37538
69,108,37541
70,20,37545
71,64,37549
72,35,37561
73,9,37568
74,4,37576
75,13,37578
76,118,37581
77,104,37593
78,98,37595
79,76,37600
80,127,37601
81,211,37622
82,86,37634
83,96,37639
84,98,37642
85,30,37659
86,158,37662
87,20,37663
88,24,37665
89,101,37672
90,179,37684
91,98,37686
92,51,37692
93,84,37698
94,120,37700
95,79,37713
96,84,51866
97,24,51868
98,91,51877
99,87,51880
100,220,51883
101,220,51884
102,137,51886
103,98,51889
104,60,51890
105,120,51893
106,92,51897
107,134,51898
108,212,51911
109,23,51912
110,42,51913
111,73,51917
112,4,51918
113,11,51922
114,79,51926
115,45,51930
116,29,51931
117,97,51932
118,41,51934
119,132,51936
120,75,51941
121,18,51942
122,70,51948
123,70,51949
124,41,51950
125,127,51951
126,35,51952
127,65,51953
128,78,40814
129,8,40815
130,98,40821
131,6,40828
132,63,40832
133,84,40846
134,91,40878
135,109,40879
136,6,40881
137,72,40882
138,111,40885
139,88,40892
140,90,40903
141,12,40906
142,0,40912
143,34,40918
144,19,40919
145,65,40932
146,107,40935
147,107,40937
148,179,40942
149,67,40945
150,83,40952
151,217,40955
152,132,40965
153,34,40971
154,68,40991
155,131,40999
156,127,41006
157,137,41011
158,45,41013
159,27,41015
160,19,47895
161,111,47896
162,173,47897
163,82,47899
164,20,47908
165,101,47914
166,57,47918
167,86,47920
168,75,47928
169,3,47943
170,95,47947
171,83,47956
172,23,47959
173,20,47974
174,108,47988
175,123,47991
176,6,47994
177,131,48012
178,103,48024
179,84,48025
180,195,48035
181,217,48044
182,0,48048
183,99,48051
184,140,48052
185,173,48057
186,96,48065
187,65,48070
188,4,48071
189,207,48088
190,90,48100
191,57,48101
192,35,18946
193,52,18947
194,130,18953
195,49,18954
196,101,18959
197,118,18973
198,185,18975
199,117,18983
200,61,18994
201,185,19000
202,133,19007
203,118,19010
204,138,19011
205,52,19023
206,111,19027
207,16,19036
208,213,19038
209,193,19044
210,98,19048
211,121,19066
212,127,19083
213,217,19098
214,79,19105
215,135,19106
216,127,19107
217,45,19110
218,62,19120
219,70,19122
220,94,19137
221,108,19138
222,204,19141
223,120,19170
224,64,29677
225,117,29687
226,107,29689
227,70,29690
228,98,29694
229,69,29700
230,99,29704
231,72,29707
232,139,29711
233,113,29724
234,43,29733
235,73,29736
236,173,29737
237,88,29738
238,88,29740
239,158,29741
240,110,29745
241,0,29747
242,117,29757
243,34,29773
244,79,29774
245,132,29784
246,155,29788
247,68,29791
248,13,29792
249,208,29799
250,217,29803
251,29,29807
252,108,29813
253,143,29815
254,127,29816
255,33,29822
256,101,49463
257,77,49465
258,113,49471
259,73,49477
260,23,49480
261,193,49483
262,42,49484
263,34,49487
264,20,49488
265,98,49489
266,97,49492
267,98,49493
268,21,49494
269,179,49495
270,104,49498
271,19,49499
272,131,49512
273,43,49514
274,72,49518
275,35,49520
276,127,49522
277,35,49525
278,11,49528
279,216,49529
280,173,49530
281,35,49531
282,115,49532
283,35,49533
284,204,49538
285,209,49541
286,79,49545
287,198,49548
288,68,44244
289,64,44248
290,107,44249
291,20,44254
292,195,44261
293,70,44270
294,83,44278
295,214,44289
296,179,44295
297,35,44296
298,99,44300
299,52,44307
300,46,44309
301,138,44315
302,13,44322
303,47,44328
304,138,44332
305,163,44338
306,72,44343
307,128,44350
308,90,44351
309,24,44352
310,99,44369
311,209,44372
312,0,44373
313,115,44398
314,46,44425
315,84,44427
316,131,44432
317,0,44439
318,143,44452
319,140,44461
320,85,37701
321,91,37710
322,93,37717
323,27,37724
324,163,37740
325,139,37762
326,118,37766
327,16,37774
328,63,37776
329,212,37791
330,3,37793
331,173,37798
332,3,37811
333,4,37819
334,92,37820
335,58,37849
336,46,37862
337,90,37863
338,94,37866
339,9,37869
340,204,37870
341,133,37871
342,28,37874
343,55,37885
344,32,37906
345,111,37909
346,84,37912
347,140,37918
348,8,37922
349,91,37925
350,91,37927
351,70,37928
352,125,1794
353,97,2013
354,87,2110
355,46,2143
356,9,2321
357,71,2769
358,0,2954
359,101,3094
360,198,3178
361,26,3213
362,0,3227
363,104,3330
364,104,3491
365,158,3597
366,4,3652
367,40,3712
368,77,3802
369,110,3823
370,96,3959
371,65,3964
372,71,4043
373,51,4059
374,78,4121
375,95,4152
376,73,4314
377,106,4502
378,38,4572
379,125,4582
380,69,4588
381,135,4646
382,138,4672
383,138,4717
384,57,51670
385,181,51672
386,131,51673
387,91,51675
388,123,51676
389,180,51677
390,131,51680
391,77,51683
392,73,51687
393,99,51691
394,58,51692
395,216,51695
396,71,51697
397,65,51702
398,33,51703
399,193,51704
400,204,51713
401,53,51714
402,108,51716
403,62,51719
404,92,51722
405,40,51724
406,64,51725
407,198,51733
408,70,51735
409,30,51739
410,36,51740
411,58,51746
412,65,51747
413,84,51753
414,217,51757
415,3,51760
416,207,23238
417,81,23239
418,58,23259
419,13,23269
420,43,23284
421,68,23291
422,73,23305
423,98,23310
424,3,23323
425,180,23332
426,131,23337
427,84,23346
428,127,23352
429,67,23367
430,27,23401
431,139,23407
432,100,23410
433,28,23414
434,65,23415
435,217,23416
436,127,23419
437,50,23435
438,80,23436
439,24,23440
440,67,23441
441,134,23442
442,124,23446
443,132,23463
444,3,23465
445,128,23468
446,64,23470
447,17,23495
448,125,43670
449,118,43672
450,48,43674
451,212,43678
452,208,43686
453,70,43696
454,100,43701
455,28,43704
456,13,43708
457,114,43723
458,104,43727
459,195,43729
460,67,43734
461,35,43736
462,213,43738
463,209,43740
464,4,43742
465,131,43743
466,22,43746
467,128,43748
468,179,43752
469,41,43756
470,27,43759
471,220,43762
472,139,43763
473,52,43764
474,70,43767
475,79,43776
476,204,43777
477,132,43779
478,114,43780
479,116,43785
480,33,34361
481,116,34362
482,12,34380
483,134,34384
484,61,34385
485,118,34387
486,114,34394
487,98,34398
488,216,34408
489,59,34418
490,181,34423
491,87,34427
492,45,34432
493,204,34434
494,140,34445
495,204,34449
496,209,34453
497,108,34455
498,213,34462
499,28,34479
500,40,34497
501,119,34508
502,40,34516
503,97,34518
504,180,34520
505,123,34521
506,47,34525
507,34,34534
508,209,34539
509,213,34545
510,73,34549
511,207,34551
512,204,52706
513,119,52827
514,86,53183
515,45,53268
516,163,53474
517,133,53521
518,107,53630
519,193,53720
520,52,53944
521,4,53953
522,38,54009
523,139,54096
524,30,54354
525,155,54356
526,119,54742
527,92,54888
528,134,54962
529,57,55485
530,163,55582
531,31,55593
532,193,55609
533,79,55639
534,17,56072
535,195,56966
536,13,69
537,35,292
538,69,360
539,14,374
540,55,507
541,35,525
542,94,614
543,80,655
544,84,37165
545,181,37243
546,220,37310
547,20,37348
548,55,37413
549,109,37626
550,47,37641
551,214,37833
552,58,37896
553,125,37993
554,101,38075
555,82,38452
556,127,38887
557,140,39179
558,136,39347
559,126,40487
560,220,41289
561,91,41298
562,58,41367
563,118,41382
564,92,41505
565,51,41580
566,63,41643
567,130,42065
568,46,42088
569,49,42149
570,17,42430
571,51,42458
572,37,42645
573,95,42713
574,207,42985
575,113,43822
576,137,49671
577,111,49676
578,99,49677
579,109,49679
580,70,49684
581,76,49685
582,12,49686
583,62,49690
584,204,49693
585,20,49694
586,8,49696
587,92,49697
588,198,49700
589,63,49702
590,60,49703
591,94,49704
592,180,49705
593,19,49706
594,91,49707
595,29,49709
596,213,49710
597,195,49711
598,12,49712
599,119,49714
600,40,49716
601,113,49717
602,49,49719
603,138,49720
604,52,49721
605,106,49722
606,87,49723
607,14,49724
608,143,20327
609,137,20343
610,70,20344
611,118,20352
612,138,20353
613,84,20357
614,193,20363
615,94,20372
616,76,20375
617,51,20387
618,46,20391
619,111,20404
620,61,20408
621,38,20410
622,124,20414
623,128,20429
624,118,20432
625,81,20448
626,193,20461
627,78,20469
628,87,20490
629,76,20509
630,216,20519
631,208,20530
632,91,20535
633,76,20539
634,12,20542
635,55,20570
636,20,20573
637,11,20582
638,6,20600
639,49,20603
640,16,7678
641,137,7681
642,99,7703
643,70,7721
644,208,7722
645,87,7727
646,72,7736
647,35,7747
648,216,7756
649,180,7762
650,173,7764
651,78,7770
652,6,7776
653,138,7777
654,163,7783
655,45,7791
656,26,7793
657,140,7802
658,21,7808
659,158,7809
660,180,7827
661,123,7838
662,53,7843
663,67,7854
664,43,7860
665,62,7864
666,35,7867
667,107,7874
668,195,7887
669,158,7912
670,3,7914
671,96,7922
672,217,38646
673,87,38647
674,143,38658
675,198,38663
676,72,38671
677,209,38675
678,94,38679
679,87,38683
680,212,38684
681,34,38687
682,66,38692
683,193,38694
684,220,38698
685,49,38706
686,116,38710
687,78,38715
688,36,38735
689,16,38738
690,53,38748
691,4,38753
692,217,38755
693,64,38762
694,83,38768
695,17,38769
696,208,38772
697,12,38787
698,35,38805
699,92,38806
700,209,38807
701,220,38808
702,108,38809
703,99,38813
704,16,44930
705,34,44959
706,179,44975
707,92,44994
708,16,45012
709,81,45027
710,21,45034
711,60,45046
712,16,45057
713,136,45060
714,87,45083
715,140,45092
716,35,45098
717,114,45100
718,116,45107
719,58,45132
720,193,45146
721,193,45152
722,39,45193
723,141,45196
724,3,45213
725,139,45256
726,141,45272
727,34,45278
728,19,45363
729,207,45371
730,58,45380
731,198,45390
732,4,45407
733,109,45423
734,70,45428
735,48,45430
736,173,19053
737,11,19055
738,41,19077
739,37,19080
740,108,19082
741,55,19090
742,208,19100
743,87,19101
744,158,19124
745,3,19128
746,96,19130
747,31,19135
748,94,19140
749,9,19147
750,198,19148
751,28,19150
752,140,19154
753,94,19155
754,4,19161
755,68,19178
756,220,19182
757,65,19188
758,70,19196
759,34,19229
760,121,19234
761,217,19248
762,179,19259
763,132,19283
764,11,19288
765,69,19302
766,87,19312
767,141,19314
768,82,12531
769,128,12537
770,112,12540
771,125,12547
772,41,12548
773,127,12551
774,67,12601
775,21,12634
776,103,12639
777,35,12640
778,97,12643
779,180,12667
780,129,12676
781,36,12690
782,40,12698
783,220,12705
784,52,12728
785,41,12774
786,214,12785
787,127,12826
788,37,12829
789,125,12841
790,52,12843
791,28,12851
792,134,12882
793,87,12889
794,109,12897
795,84,12902
796,59,12907
797,185,12919
798,138,12925
799,8,12939
800,43,42450
801,91,42469
802,4,42484
803,108,42503
804,110,42507
805,198,42518
806,214,42529
807,33,42531
808,78,42543
809,120,42548
810,100,42553
811,33,42554
812,207,42555
813,96,42569
814,57,42577
815,73,42582
816,27,42586
817,65,42591
818,207,42595
819,89,42620
820,213,42630
821,16,42631
822,19,42640
823,115,42644
824,53,42648
825,100,42652
826,52,42670
827,137,42692
828,181,42693
829,58,42700
830,3,42716
831,167,42718
832,64,58441
833,70,58442
834,7,58444
835,34,58447
836,220,58448
837,27,58450
838,141,58451
839,97,58452
840,54,58453
841,40,58454
842,134,58456
843,51,58459
844,52,58460
845,111,58462
846,193,58463
847,31,58464
848,204,58466
849,55,58469
850,220,58471
851,107,58478
852,30,58480
853,125,58483
854,139,58486
855,173,58488
856,111,58490
857,138,58491
858,91,58492
859,35,58493
860,23,58494
861,101,58495
862,123,58496
863,138,58498
864,41,5948
865,204,5955
866,9,5979
867,67,5996
868,71,6064
869,140,6065
870,207,6088
871,20,6091
872,87,6106
873,35,6107
874,96,6109
875,123,6116
876,204,6157
877,46,6180
878,132,6269
879,12,6347
880,52,6364
881,126,6461
882,72,6526
883,208,6532
884,60,6564
885,70,6577
886,54,6600
887,13,6627
888,141,6628
889,28,6663
890,26,6767
891,66,6768
892,3,6815
893,42,6896
894,135,6904
895,108,6949
896,33,40861
897,65,40862
898,214,40863
899,34,40865
900,62,40866
901,9,40870
902,21,40887
903,91,40888
904,101,40891
905,48,40898
906,141,40900
907,13,40901
908,70,40907
909,4,40908
910,37,40910
911,204,40913
912,6,40914
913,61,40915
914,126,40916
915,127,40926
916,96,40927
917,82,40928
918,94,40931
919,12,40936
920,127,40943
921,155,40949
922,28,40958
923,207,40974
924,3,40975
925,7,40980
926,84,40986
927,67,40989
928,216,27764
929,59,27769
930,71,27770
931,116,27787
932,204,27793
933,59,27798
934,215,27805
935,7,27810
936,62,27821
937,61,27823
938,67,27827
939,185,27838
940,51,27841
941,101,27854
942,70,27856
943,139,27875
944,40,27887
945,135,27896
946,72,27908
947,66,27909
948,35,27921
949,216,27932
950,167,27936
951,4,27943
952,117,27949
953,114,27953
954,113,27954
955,98,27971
956,99,27980
957,0,27983
958,53,27985
959,65,27991
960,3,41179
961,214,41183
962,217,41192
963,127,41201
964,113,41205
965,81,41211
966,47,41223
967,84,41224
968,108,41251
969,137,41260
970,94,41269
971,80,41290
972,45,41301
973,115,41314
974,111,41328
975,47,41343
976,10,41360
977,163,41369
978,58,41414
979,214,41417
980,137,41441
981,217,41455
982,135,41476
983,28,41478
984,124,41485
985,94,41487
986,54,41490
987,130,41499
988,124,41520
989,33,41537
990,141,41543
991,38,41560
992,114,23431
993,137,23439
994,83,23444
995,108,23449
996,35,23450
997,19,23457
998,99,23460
999,88,23469
1000,116,23473
1001,7,23478
1002,220,23511
1003,217,23519
1004,78,23521
1005,73,23523
1006,114,23529
1007,132,23551
1008,132,23554
1009,131,23563
1010,8,23572
1011,55,23577
1012,35,23588
1013,179,23597
1014,204,23601
1015,71,23609
1016,214,23619
1017,173,23620
1018,120,23640
1019,37,23673
1020,58,23687
1021,79,23692
1022,198,23709
1023,79,23727
1024,97,19531
1025,111,19536
1026,35,19543
1027,82,19547
1028,13,19550
1029,19,19553
1030,70,19557
1031,217,19561
1032,70,19571
1033,207,19572
1034,213,19591
1035,76,19601
1036,29,19635
1037,49,19641
1038,59,19670
1039,69,19675
1040,141,19678
1041,207,19681
1042,12,19703
1043,78,19710
1044,211,19712
1045,16,19719
1046,109,19734
1047,128,19751
1048,92,19753
1049,214,19755
1050,11,19759
1051,114,19767
1052,87,19770
1053,41,19777
1054,9,19794
1055,195,19844
1056,173,52845
1057,55,52849
1058,209,52852
1059,68,52856
1060,131,52859
1061,71,52869
1062,127,52873
1063,118,52878
1064,72,52879
1065,79,52882
1066,72,52895
1067,123,52896
1068,11,52905
1069,8,52912
1070,83,52913
1071,78,52920
1072,24,52925
1073,155,52927
1074,76,52945
1075,137,52947
1076,58,52949
1077,34,52954
1078,63,52963
1079,34,52967
1080,131,52968
1081,43,52987
1082,31,52992
1083,41,52993
1084,52,52994
1085,63,53000
1086,65,53003
1087,198,53015
1088,14,54365
1089,83,54367
1090,65,54371
1091,138,54373
1092,55,54377
1093,107,54379
1094,66,54383
1095,47,54389
1096,71,54390
1097,80,54392
1098,123,54394
1099,124,54395
1100,217,54396
1101,195,54397
1102,91,54400
1103,4,54406
1104,84,54408
1105,135,54411
1106,60,54412
1107,62,54415
1108,97,54419
1109,129,54423
1110,132,54428
1111,79,54429
1112,99,54431
1113,68,54434
1114,59,54439
1115,35,54445
1116,54,54446
1117,56,54447
1118,128,54448
1119,71,54451
1120,8,8468
1121,77,8470
1122,60,8501
1123,9,8504
1124,119,8508
1125,106,8511
1126,72,8512
1127,58,8522
1128,12,8529
1129,95,8530
1130,81,8536
1131,140,8585
1132,20,8592
1133,35,8598
1134,20,8599
1135,217,8610
1136,207,8615
1137,167,8626
1138,61,8648
1139,21,8649
1140,77,8669
1141,23,8683
1142,12,8686
1143,204,8688
1144,100,8689
1145,60,8694
1146,91,8700
1147,106,8712
1148,51,8714
1149,111,8728
1150,21,8736
1151,58,8739
1152,90,35386
1153,72,35391
1154,207,35394
1155,44,35403
1156,135,35419
1157,185,35429
1158,88,35433
1159,71,35467
1160,7,35469
1161,59,35478
1162,140,35481
1163,213,35489
1164,64,35492
1165,81,35495
1166,70,35499
1167,13,35502
1168,90,35505
1169,138,35512
1170,214,35519
1171,28,35527
1172,21,35529
1173,118,35534
1174,124,35536
1175,211,35538
1176,109,35540
1177,207,35555
1178,111,35565
1179,134,35573
1180,124,35574
1181,64,35577
1182,8,35585
1183,86,35603
1184,3,29379
1185,16,29381
1186,198,29382
1187,0,29394
1188,99,29397
1189,127,29401
1190,216,29404
1191,118,29405
1192,63,29408
1193,213,29423
1194,35,29426
1195,108,29427
1196,64,29438
1197,68,29446
1198,81,29453
1199,24,29454
1200,109,29455
1201,141,29456
1202,204,29467
1203,209,29470
1204,62,29472
1205,47,29481
1206,111,29483
1207,64,29484
1208,193,29487
1209,124,29488
1210,23,29506
1211,72,29516
1212,113,29521
1213,193,29526
1214,109,29532
1215,98,29536
1216,7,27749
1217,37,27789
1218,94,27846
1219,138,27914
1220,134,27918
1221,88,27945
1222,141,27962
1223,55,27979
1224,55,28170
1225,42,28237
1226,70,28250
1227,204,28481
1228,87,28629
1229,19,28640
1230,207,28661
1231,216,28673
1232,64,28754
1233,0,28786
1234,220,28810
1235,121,28815
1236,9,28821
1237,90,28870
1238,128,28886
1239,6,28945
1240,73,29048
1241,100,29080
1242,124,29137
1243,80,29193
1244,106,29253
1245,214,29259
1246,68,29271
1247,47,29286
1248,208,15232
1249,13,15253
1250,109,15303
1251,208,15353
1252,76,15366
1253,65,15386
1254,48,15401
1255,20,15441
1256,140,15442
1257,57,15450
1258,198,15461
1259,4,15491
1260,31,15492
1261,68,15501
1262,63,15511
1263,63,15520
1264,26,15588
1265,51,15621
1266,113,15634
1267,24,15670
1268,60,15694
1269,13,15707
1270,32,15726
1271,42,15746
1272,52,15754
1273,20,15775
1274,52,15784
1275,73,15795
1276,75,15830
1277,39,15881
1278,128,15885
1279,3,15892
1280,45,3728
1281,13,3756
1282,116,3758
1283,91,3771
1284,41,3772
1285,217,3784
1286,61,3816
1287,180,3837
1288,158,3849
1289,35,3852
1290,81,3853
1291,68,3879
1292,87,3881
1293,68,3889
1294,116,3897
1295,211,3916
1296,98,3979
1297,108,3989
1298,63,3997
1299,60,4004
1300,83,4027
1301,118,4028
1302,12,4062
1303,110,4138
1304,212,4139
1305,204,4145
1306,113,4150
1307,8,4151
1308,38,4176
1309,0,4198
1310,87,4226
1311,106,4239
1312,52,44589
1313,29,44591
1314,88,44593
1315,127,44601
1316,84,44611
1317,68,44617
1318,84,44623
1319,123,44624
1320,220,44626
1321,91,44635
1322,55,44636
1323,143,44638
1324,98,44640
1325,16,44648
1326,58,44650
1327,51,44651
1328,143,44657
1329,8,44661
1330,27,44665
1331,212,44668
1332,158,44674
1333,217,44683
1334,136,44685
1335,180,44688
1336,134,44690
1337,34,44693
1338,16,44695
1339,208,44696
1340,132,44698
1341,63,44706
1342,158,44711
1343,81,44716
1344,45,13892
1345,220,13927
1346,16,13928
1347,104,13935
1348,16,13952
1349,124,13966
1350,76,13968
1351,70,14001
1352,20,14068
1353,65,14073
1354,42,14092
1355,96,14117
1356,94,14120
1357,120,14124
1358,4,14132
1359,84,14148
1360,11,14162
1361,34,14164
1362,193,14166
1363,100,14179
1364,173,14186
1365,133,14212
1366,77,14215
1367,77,14223
1368,70,14266
1369,139,14272
1370,62,14331
1371,76,14339
1372,56,14366
1373,107,14392
1374,138,14403
1375,101,14413
1376,6,42222
1377,90,42226
1378,108,42229
1379,132,42233
1380,158,42252
1381,19,42255
1382,17,42259
1383,67,42264
1384,76,42277
1385,100,42282
1386,52,42284
1387,29,42287
1388,19,42297
1389,132,42299
1390,120,42306
1391,17,42309
1392,139,42310
1393,17,42311
1394,209,42320
1395,33,42326
1396,107,42327
1397,73,42330
1398,131,42342
1399,106,42352
1400,35,42355
1401,61,42361
1402,111,42377
1403,116,42395
1404,92,42397
1405,47,42404
1406,124,42416
1407,16,42422
1408,56,52933
1409,64,52934
1410,136,52952
1411,111,52969
1412,135,52977
1413,107,53005
1414,212,53007
1415,158,53038
1416,41,53045
1417,65,53048
1418,101,53050
1419,204,53057
1420,66,53060
1421,131,53067
1422,13,53072
1423,28,53079
1424,131,53081
1425,59,53088
1426,91,53094
1427,111,53095
1428,111,53096
1429,92,53108
1430,28,53109
1431,94,53114
1432,88,53120
1433,198,53132
1434,8,53152
1435,4,53158
1436,51,53163
1437,14,53164
1438,87,53184
1439,158,53188
1440,66,44551
1441,204,44554
1442,61,44555
1443,81,44557
1444,0,44558
1445,138,44559
1446,80,44562
1447,47,44567
1448,198,44568
1449,173,44572
1450,81,44575
1451,70,44578
1452,57,44581
1453,124,44583
1454,193,44584
1455,81,44587
1456,41,44588
1457,98,44592
1458,137,44595
1459,12,44597
1460,3,44598
1461,137,44603
1462,173,44604
1463,94,44608
1464,0,44610
1465,34,44612
1466,35,44613
1467,106,44614
1468,94,44619
1469,13,44621
1470,73,44622
1471,208,44631
1472,119,618
1473,8,629
1474,8,662
1475,76,664
1476,134,707
1477,114,721
1478,36,755
1479,131,791
1480,6,867
1481,19,878
1482,23,884
1483,8,885
1484,43,894
1485,108,897
1486,99,907
1487,82,912
1488,209,928
1489,91,930
1490,83,937
1491,113,940
1492,12,966
1493,26,1058
1494,120,1115
1495,70,1136
1496,212,1171
1497,58,1179
1498,135,1288
1499,207,1336
1500,68,1355
1501,61,1407
1502,138,1418
1503,107,1421
1504,52,36534
1505,98,36539
1506,114,36540
1507,16,36544
1508,208,36553
1509,204,36559
1510,193,36574
1511,137,36576
1512,71,36595
1513,181,36596
1514,121,36599
1515,7,36603
1516,115,36605
1517,87,36606
1518,214,36613
1519,100,36614
1520,0,36625
1521,125,36637
1522,2,36639
1523,77,36649
1524,20,36676
1525,209,36681
1526,36,36689
1527,198,36696
1528,45,36697
1529,69,36700
1530,27,36703
1531,35,36704
1532,207,36705
1533,84,36708
1534,124,36711
1535,41,36719
1536,63,42116
1537,17,42142
1538,34,42144
1539,31,42161
1540,108,42176
1541,52,42182
1542,130,42190
1543,16,42207
1544,41,42227
1545,209,42234
1546,23,42243
1547,12,42245
1548,73,42247
1549,94,42267
1550,16,42274
1551,127,42279
1552,140,42280
1553,54,42300
1554,71,42303
1555,99,42314
1556,8,42329
1557,109,42332
1558,137,42345
1559,45,42369
1560,26,42370
1561,127,42381
1562,113,42386
1563,0,42390
1564,112,42411
1565,109,42412
1566,34,42441
1567,127,42444
1568,4,26386
1569,113,26389
1570,70,26398
1571,198,26404
1572,108,26406
1573,23,26425
1574,26,26431
1575,195,26438
1576,99,26443
1577,207,26451
1578,137,26456
1579,96,26462
1580,70,26467
1581,211,26476
1582,207,26483
1583,208,26484
1584,77,26486
1585,7,26500
1586,163,26512
1587,106,26514
1588,27,26517
1589,69,26522
1590,16,26523
1591,4,26524
1592,71,26536
1593,91,26550
1594,195,26555
1595,8,26563
1596,140,26568
1597,12,26570
1598,99,26571
1599,135,26598
1600,207,25675
1601,24,25683
1602,117,25696
1603,110,25698
1604,77,25699
1605,111,25705
1606,123,25706
1607,32,25710
1608,31,25713
1609,34,25715
1610,81,25720
1611,73,25721
1612,35,25727
1613,135,25730
1614,94,25735
1615,107,25736
1616,78,25737
1617,116,25740
1618,81,25743
1619,212,25750
1620,73,25753
1621,133,25763
1622,7,25771
1623,4,25774
1624,98,25783
1625,52,25789
1626,76,25792
1627,204,25793
1628,3,25805
1629,96,25810
1630,51,25817
1631,78,25825
1632,41,45961
1633,216,45965
1634,43,45966
1635,49,45970
1636,163,45971
1637,74,45973
1638,193,45978
1639,20,45980
1640,11,45984
1641,118,45985
1642,185,45986
1643,116,45989
1644,44,45993
1645,118,45996
1646,217,45997
1647,111,46000
1648,71,46001
1649,216,46006
1650,120,46009
1651,217,46011
1652,95,46020
1653,57,46022
1654,0,46024
1655,136,46025
1656,125,46030
1657,135,46031
1658,67,46038
1659,34,46043
1660,132,46048
1661,6,46050
1662,20,46054
1663,204,46055
1664,40,22589
1665,207,22602
1666,19,22606
1667,120,22619
1668,15,22629
1669,114,22631
1670,118,22633
1671,130,22635
1672,109,22639
1673,91,22640
1674,212,22716
1675,71,22719
1676,40,22725
1677,61,22727
1678,70,22732
1679,63,22768
1680,39,22772
1681,70,22793
1682,135,22801
1683,118,22808
1684,129,22815
1685,220,22816
1686,137,22852
1687,70,22876
1688,140,22894
1689,107,22896
1690,3,22903
1691,4,22912
1692,112,22917
1693,64,22938
1694,127,22941
1695,52,22942
1696,70,14613
1697,34,14665
1698,217,14675
1699,106,14683
1700,20,14686
1701,109,14703
1702,99,14723
1703,213,14724
1704,204,14729
1705,58,14733
1706,72,14785
1707,193,14787
1708,97,14839
1709,53,14850
1710,129,14871
1711,73,14877
1712,14,14879
1713,9,14905
1714,11,15020
1715,207,15033
1716,119,15066
1717,179,15076
1718,32,15088
1719,16,15153
1720,19,15154
1721,10,15159
1722,4,15162
1723,59,15196
1724,14,15202
1725,19,15211
1726,12,15212
1727,75,15223
1728,61,45650
1729,15,45652
1730,143,45654
1731,118,45664
1732,131,45673
1733,20,45674
1734,21,45677
1735,34,45680
1736,143,45682
1737,70,45689
1738,198,45693
1739,58,45698
1740,127,45700
1741,135,45704
1742,134,45708
1743,48,45714
1744,34,45718
1745,132,45720
1746,198,45722
1747,65,45726
1748,106,45727
1749,139,45730
1750,68,45738
1751,62,45749
1752,3,45755
1753,13,45756
1754,68,45758
1755,111,45759
1756,42,45764
1757,127,45770
1758,70,45773
1759,212,45775
1760,2,28720
1761,6,28737
1762,84,28743
1763,95,28746
1764,13,28747
1765,22,28748
1766,2,28751
1767,107,28752
1768,61,28753
1769,19,28756
1770,117,28765
1771,195,28772
1772,3,28774
1773,128,28788
1774,138,28789
1775,87,28791
1776,180,28811
1777,128,28818
1778,35,28820
1779,45,28822
1780,118,28824
1781,28,28826
1782,137,28827
1783,49,28845
1784,113,28849
1785,43,28852
1786,91,28857
1787,35,28878
1788,4,28879
1789,195,28882
1790,109,28884
1791,118,28900
1792,35,7645
1793,123,7648
1794,220,7653
1795,14,7666
1796,123,7674
1797,204,7694
1798,91,7699
1799,133,7700
1800,9,7710
1801,208,7726
1802,6,7730
1803,49,7737
1804,35,7738
1805,20,7746
1806,99,7748
1807,2,7767
1808,180,7771
1809,217,7775
1810,118,7794
1811,61,7816
1812,52,7817
1813,40,7821
1814,0,7824
1815,73,7836
1816,69,7849
1817,24,7857
1818,216,7858
1819,0,7889
1820,79,7900
1821,180,7901
1822,94,7915
1823,73,7920
1824,204,3854
1825,77,3890
1826,76,3899
1827,208,3952
1828,71,4042
1829,36,4046
1830,81,4057
1831,128,4204
1832,131,4211
1833,208,4220
1834,70,4257
1835,41,4258
1836,173,4342
1837,60,4343
1838,8,4406
1839,76,4434
1840,204,4435
1841,141,4438
1842,19,4472
1843,204,4509
1844,106,4519
1845,118,4858
1846,106,4881
1847,134,4888
1848,217,5108
1849,212,5142
1850,53,5239
1851,20,5317
1852,38,5696
1853,59,5914
1854,20,6355
1855,60,6529
1856,43,39443
1857,43,39444
1858,104,39447
1859,33,39458
1860,62,39459
1861,12,39460
1862,19,39466
1863,63,39467
1864,139,39470
1865,73,39472
1866,8,39484
1867,53,39491
1868,114,39500
1869,106,39505
1870,54,39512
1871,65,39536
1872,139,39538
1873,8,39541
1874,54,39542
1875,0,39543
1876,73,39556
1877,62,39558
1878,78,39564
1879,73,39582
1880,3,39588
1881,58,39591
1882,124,39595
1883,16,39605
1884,52,39609
1885,86,39612
1886,158,39614
1887,91,39617
1888,195,56481
1889,91,56483
1890,66,56484
1891,104,56486
1892,130,56487
1893,11,56488
1894,129,56491
1895,216,56495
1896,106,56504
1897,115,56505
1898,204,56509
1899,158,56512
1900,84,56517
1901,101,56523
1902,53,56525
1903,8,56527
1904,41,56529
1905,30,56534
1906,70,56538
1907,38,56539
1908,214,56541
1909,123,56542
1910,93,56552
1911,204,56553
1912,11,56556
1913,134,56558
1914,96,56562
1915,125,56563
1916,99,56568
1917,94,56569
1918,90,56571
1919,103,56573
1920,64,15793
1921,195,15831
1922,83,15834
1923,179,15846
1924,97,15852
1925,99,15861
1926,198,15865
1927,51,15876
1928,34,15884
1929,68,15898
1930,111,15928
1931,76,15931
1932,68,15932
1933,13,15948
1934,82,15959
1935,108,15962
1936,82,15975
1937,83,16016
1938,108,16022
1939,54,16036
1940,17,16041
1941,84,16057
1942,103,16070
1943,202,16074
1944,214,16077
1945,72,16081
1946,95,16082
1947,107,16089
1948,124,16115
1949,125,16129
1950,1,16152
1951,111,16155
1952,195,45567
1953,12,45571
1954,124,45587
1955,20,45590
1956,207,45617
1957,129,45629
1958,127,45632
1959,1,45648
1960,92,45661
1961,25,45672
1962,158,45678
1963,134,45716
1964,81,45719
1965,133,45721
1966,54,45732
1967,163,45744
1968,2,45747
1969,94,45748
1970,75,45754
1971,87,45776
1972,100,45777
1973,0,45780
1974,81,45794
1975,58,45797
1976,23,45803
1977,130,45825
1978,211,45826
1979,209,45829
1980,106,45844
1981,140,45864
1982,68,45877
1983,123,45879
1984,185,43930
1985,135,43942
1986,62,43969
1987,179,44022
1988,217,44051
1989,204,44060
1990,20,44068
1991,207,44092
1992,96,44093
1993,3,44176
1994,83,44178
1995,163,44272
1996,128,44285
1997,100,44407
1998,30,44524
1999,167,44552
2000,98,44629
2001,173,44780
2002,65,44804
2003,92,44856
2004,35,44858
2005,209,44903
2006,45,45014
2007,123,45134
2008,108,45141
2009,207,45225
2010,208,45339
2011,179,45341
2012,179,45379
2013,44,45438
2014,78,45514
2015,44,45529
2016,124,33643
2017,116,33645
2018,116,33649
2019,37,33660
2020,37,33671
2021,58,33682
2022,41,33717
2023,125,33732
2024,2,33740
2025,40,33749
2026,51,33750
2027,133,33754
2028,76,33767
2029,91,33796
2030,64,33816
2031,204,33821
2032,138,33823
2033,8,33827
2034,127,33830
2035,64,33839
2036,137,33852
2037,113,33857
2038,131,33868
2039,42,33870
2040,120,33872
2041,87,33875
2042,51,33880
2043,29,33881
2044,167,33900
2045,98,33908
2046,101,33917
2047,60,33920
2048,139,11721
2049,5,11760
2050,107,11766
2051,73,11793
2052,195,11901
2053,123,11945
2054,112,11966
2055,41,11985
2056,34,11989
2057,77,11997
2058,132,12004
2059,23,12023
2060,141,12024
2061,16,12066
2062,49,12102
2063,3,12104
2064,137,12118
2065,6,12135
2066,64,12160
2067,88,12242
2068,114,12251
2069,109,12264
2070,61,12265
2071,217,12276
2072,214,12280
2073,198,12305
2074,134,12317
2075,163,12324
2076,35,12394
2077,135,12403
2078,91,12412
2079,111,12422
2080,47,15922
2081,195,15927
2082,14,15969
2083,139,15978
2084,95,15979
2085,86,15997
2086,207,16004
2087,3,16026
2088,20,16080
2089,106,16092
2090,80,16096
2091,78,16125
2092,116,16127
2093,123,16134
2094,30,16140
2095,65,16148
2096,208,16156
2097,207,16158
2098,111,16189
2099,3,16190
2100,87,16208
2101,114,16222
2102,75,16238
2103,8,16260
2104,193,16266
2105,7,16274
2106,72,16280
2107,198,16301
2108,35,16307
2109,93,16311
2110,70,16327
2111,126,16359
2112,35,54184
2113,116,54188
2114,30,54190
2115,207,54193
2116,88,54201
2117,76,54203
2118,110,54204
2119,155,54207
2120,70,54214
2121,126,54215
2122,28,54216
2123,30,54220
2124,98,54225
2125,45,54228
2126,88,54235
2127,10,54237
2128,75,54244
2129,173,54246
2130,8,54250
2131,111,54255
2132,24,54258
2133,213,54261
2134,179,54268
2135,220,54271
2136,66,54272
2137,179,54274
2138,70,54275
2139,135,54277
2140,14,54278
2141,213,54280
2142,68,54281
2143,73,54282
2144,91,2196
2145,40,2305
2146,21,2392
2147,68,2425
2148,139,2429
2149,77,2443
2150,58,2501
2151,87,2554
2152,220,2587
2153,0,2634
2154,87,2648
2155,204,2718
2156,45,2745
2157,173,2752
2158,208,2765
2159,83,2772
2160,19,2868
2161,53,2873
2162,213,2893
2163,70,2923
2164,32,2976
2165,132,2977
2166,7,2980
2167,19,3021
2168,198,3179
2169,8,3188
2170,96,3207
2171,35,3256
2172,120,3269
2173,112,3344
2174,87,3359
2175,19,3393
2176,130,33315
2177,60,33409
2178,173,33422
2179,100,33503
2180,121,33504
2181,179,33572
2182,13,33648
2183,100,33794
2184,140,33884
2185,141,33974
2186,34,34035
2187,110,34089
2188,52,34161
2189,35,34203
2190,115,34241
2191,82,34266
2192,62,34309
2193,204,34343
2194,27,34372
2195,20,34383
2196,204,34580
2197,208,34585
2198,107,34617
2199,133,34692
2200,68,34722
2201,19,34833
2202,70,34861
2203,106,34897
2204,91,34905
2205,134,34997
2206,124,35073
2207,97,35127
2208,181,17982
2209,106,18007
2210,21,18029
2211,47,18031
2212,87,18034
2213,82,18076
2214,59,18093
2215,140,18105
2216,62,18107
2217,100,18113
2218,98,18134
2219,3,18136
2220,47,18143
2221,130,18154
2222,120,18163
2223,137,18195
2224,213,18220
2225,103,18221
2226,64,18294
2227,139,18296
2228,185,18299
2229,135,18306
2230,141,18313
2231,23,18315
2232,16,18328
2233,217,18330
2234,139,18332
2235,116,18335
2236,181,18340
2237,64,18345
2238,121,18349
2239,51,18358
2240,11,35401
2241,68,35406
2242,134,35409
2243,209,35410
2244,180,35411
2245,163,35422
2246,20,35423
2247,220,35424
2248,40,35425
2249,53,35426
2250,179,35437
2251,63,35440
2252,88,35442
2253,179,35448
2254,140,35452
2255,35,35460
2256,115,35471
2257,33,35474
2258,140,35477
2259,64,35494
2260,4,35496
2261,91,35498
2262,216,35507
2263,137,35522
2264,43,35523
2265,126,35524
2266,80,35543
2267,118,35560
2268,216,35569
2269,3,35571
2270,216,35580
2271,128,35581
2272,92,12093
2273,130,12109
2274,98,12115
2275,76,12127
2276,45,12169
2277,82,12177
2278,54,12213
2279,96,12241
2280,173,12245
2281,198,12254
2282,92,12255
2283,214,12269
2284,41,12279
2285,86,12281
2286,193,12288
2287,52,12293
2288,131,12302
2289,107,12333
2290,59,12369
2291,65,12388
2292,70,12392
2293,84,12431
2294,130,12443
2295,118,12476
2296,78,12515
2297,34,12521
2298,204,12523
2299,52,12606
2300,47,12609
2301,135,12615
2302,198,12620
2303,64,12632
2304,16,56142
2305,19,56152
2306,213,56153
2307,49,56154
2308,71,56156
2309,29,56157
2310,198,56158
2311,17,56159
2312,90,56161
2313,30,56163
2314,198,56165
2315,8,56172
2316,15,56173
2317,195,56174
2318,185,56176
2319,11,56177
2320,61,56178
2321,209,56180
2322,179,56184
2323,198,56185
2324,220,56186
2325,173,56189
2326,207,56191
2327,110,56193
2328,108,56195
2329,112,56196
2330,57,56198
2331,211,56200
2332,60,56201
2333,19,56203
2334,110,56207
2335,55,56208
2336,220,7499
2337,35,7503
2338,135,7511
2339,67,7512
2340,70,7516
2341,99,7521
2342,100,7525
2343,9,7532
2344,64,7572
2345,92,7590
2346,140,7601
2347,207,7608
2348,3,7612
2349,131,7629
2350,47,7655
2351,59,7676
2352,140,7693
2353,135,7723
2354,220,7724
2355,58,7732
2356,59,7733
2357,87,7741
2358,124,7745
2359,70,7752
2360,49,7768
2361,217,7773
2362,98,7774
2363,81,7786
2364,8,7797
2365,52,7807
2366,134,7825
2367,73,7830
2368,19,12737
2369,73,12745
2370,179,12755
2371,127,12771
2372,167,12772
2373,193,12773
2374,7,12807
2375,68,12809
2376,208,12810
2377,135,12834
2378,135,12845
2379,101,12850
2380,66,12879
2381,45,12886
2382,81,12888
2383,78,12913
2384,20,12928
2385,11,12932
2386,84,12935
2387,58,12942
2388,83,12949
2389,117,12959
2390,76,12960
2391,134,12962
2392,41,12969
2393,134,12984
2394,52,13006
2395,124,13007
2396,45,13014
2397,61,13015
2398,167,13026
2399,9,13034
2400,23,7369
2401,78,7370
2402,87,7380
2403,16,7427
2404,100,7436
2405,62,7445
2406,12,7480
2407,4,7485
2408,78,7486
2409,134,7492
2410,8,7497
2411,17,7501
2412,21,7504
2413,181,7505
2414,220,7517
2415,91,7518
2416,28,7524
2417,1,7540
2418,173,7547
2419,0,7575
2420,2,7579
2421,20,7598
2422,17,7623
2423,19,7632
2424,195,7634
2425,181,7636
2426,49,7638
2427,2,7647
2428,42,7691
2429,113,7707
2430,3,7734
2431,123,7779
2432,51,10958
2433,8,10961
2434,94,10976
2435,19,11007
2436,72,11009
2437,72,11010
2438,67,11064
2439,220,11066
2440,39,11071
2441,83,11079
2442,66,11113
2443,17,11117
2444,96,11139
2445,12,11159
2446,82,11161
2447,208,11162
2448,193,11176
2449,41,11185
2450,217,11196
2451,134,11199
2452,193,11223
2453,125,11228
2454,14,11231
2455,217,11232
2456,52,11236
2457,47,11287
2458,57,11333
2459,84,11337
2460,137,11342
2461,204,11362
2462,4,11371
2463,55,11375
2464,47,47218
2465,108,47219
2466,123,47220
2467,63,47222
2468,114,47223
2469,8,47224
2470,69,47228
2471,138,47230
2472,12,47232
2473,3,47236
2474,78,47239
2475,24,47249
2476,116,47252
2477,131,47253
2478,138,47260
2479,76,47261
2480,78,47263
2481,64,47264
2482,125,47266
2483,118,47268
2484,0,47271
2485,98,47276
2486,131,47292
2487,109,47295
2488,143,47298
2489,133,47299
2490,79,47303
2491,17,47307
2492,144,47309
2493,207,47311
2494,44,47312
2495,84,47316
2496,43,23813
2497,14,23849
2498,35,23852
2499,133,23866
2500,52,23876
2501,139,23880
2502,104,23885
2503,20,23935
2504,138,23936
2505,193,23947
2506,173,23958
2507,193,24014
2508,16,24016
2509,86,24036
2510,76,24062
2511,92,24067
2512,208,24082
2513,64,24103
2514,112,24153
2515,73,24159
2516,6,24165
2517,60,24166
2518,59,24179
2519,91,24192
2520,195,24196
2521,82,24271
2522,61,24289
2523,77,24324
2524,108,24363
2525,34,24396
2526,49,24421
2527,127,24426
2528,207,14414
2529,76,14418
2530,6,14478
2531,64,14495
2532,101,14530
2533,134,14536
2534,116,14550
2535,57,14564
2536,180,14573
2537,207,14578
2538,131,14581
2539,139,14594
2540,88,14615
2541,101,14616
2542,125,14619
2543,123,14632
2544,92,14639
2545,79,14644
2546,96,14646
2547,31,14650
2548,118,14652
2549,63,14656
2550,126,14685
2551,58,14699
2552,163,14701
2553,43,14706
2554,193,14709
2555,35,14711
2556,88,14718
2557,71,14722
2558,63,14731
2559,34,14732
2560,4,24542
2561,128,24553
2562,137,24586
2563,134,24592
2564,204,24602
2565,76,24607
2566,123,24609
2567,75,24614
2568,198,24627
2569,52,24628
2570,131,24631
2571,66,24635
2572,193,24636
2573,17,24645
2574,123,24646
2575,124,24648
2576,167,24660
2577,81,24673
2578,107,24674
2579,21,24677
2580,127,24685
2581,34,24687
2582,193,24693
2583,2,24696
2584,141,24697
2585,31,24699
2586,68,24700
2587,97,24702
2588,141,24712
2589,127,24714
2590,3,24715
2591,213,24716
2592,34,38140
2593,16,38151
2594,94,38177
2595,79,38180
2596,124,38185
2597,136,38187
2598,23,38192
2599,71,38226
2600,64,38248
2601,120,38254
2602,37,38291
2603,23,38310
2604,13,38378
2605,107,38409
2606,217,38425
2607,123,38480
2608,97,38528
2609,32,38558
2610,30,38559
2611,5,38566
2612,12,38567
2613,65,38584
2614,34,38604
2615,141,38606
2616,57,38614
2617,207,38627
2618,179,38629
2619,217,38639
2620,78,38651
2621,29,38664
2622,58,38667
2623,158,38716
2624,81,50242
2625,77,50245
2626,42,50246
2627,29,50247
2628,82,50249
2629,195,50251
2630,30,50255
2631,20,50257
2632,217,50259
2633,91,50274
2634,58,50276
2635,87,50278
2636,135,50279
2637,220,50280
2638,125,50285
2639,62,50291
2640,131,50292
2641,62,50294
2642,179,50295
2643,130,50303
2644,58,50307
2645,137,50309
2646,51,50312
2647,132,50314
2648,87,50315
2649,21,50320
2650,59,50326
2651,29,50330
2652,88,50331
2653,35,50332
2654,181,50340
2655,99,50345
2656,179,4711
2657,19,4712
2658,123,4719
2659,34,4732
2660,100,4749
2661,6,4753
2662,53,4761
2663,163,4775
2664,217,4784
2665,88,4785
2666,96,4786
2667,35,4787
2668,68,4797
2669,40,4801
2670,137,4804
2671,119,4810
2672,94,4853
2673,181,4913
2674,13,4919
2675,45,4930
2676,65,4944
2677,0,4951
2678,207,4979
2679,87,4995
2680,84,5002
2681,124,5055
2682,26,5071
2683,12,5076
2684,34,5077
2685,95,5082
2686,101,5087
2687,61,5093
2688,133,30624
2689,180,30629
2690,81,30630
2691,58,30632
2692,107,30634
2693,109,30636
2694,7,30641
2695,92,30642
2696,127,30645
2697,0,30648
2698,127,30651
2699,180,30654
2700,104,30656
2701,211,30659
2702,17,30660
2703,17,30661
2704,101,30662
2705,119,30663
2706,81,30666
2707,11,30667
2708,22,30669
2709,82,30670
2710,35,30673
2711,112,30679
2712,31,30681
2713,34,30682
2714,138,30685
2715,217,30697
2716,46,30708
2717,78,30710
2718,21,30715
2719,139,30716
2720,52,37458
2721,101,37472
2722,88,37475
2723,60,37483
2724,119,37494
2725,44,37499
2726,138,37509
2727,76,37517
2728,106,37532
2729,83,37536
2730,82,37554
2731,185,37558
2732,35,37565
2733,47,37579
2734,91,37588
2735,70,37590
2736,98,37591
2737,135,37597
2738,34,37611
2739,84,37617
2740,94,37621
2741,217,37628
2742,87,37633
2743,114,37645
2744,98,37648
2745,117,37655
2746,11,37666
2747,110,37669
2748,57,37670
2749,58,37679
2750,4,37690
2751,33,37697
2752,127,15135
2753,204,15151
2754,31,15204
2755,106,15209
2756,114,15270
2757,213,15271
2758,123,15287
2759,70,15293
2760,141,15295
2761,35,15300
2762,42,15305
2763,198,15335
2764,7,15338
2765,138,15351
2766,47,15360
2767,179,15393
2768,204,15398
2769,4,15428
2770,84,15444
2771,139,15464
2772,92,15521
2773,17,15522
2774,124,15527
2775,19,15562
2776,42,15564
2777,40,15569
2778,111,15570
2779,46,15572
2780,109,15603
2781,217,15650
2782,216,15682
2783,13,15718
2784,32,1932
2785,43,1976
2786,19,1992
2787,112,2067
2788,55,2070
2789,58,2085
2790,80,2135
2791,140,2136
2792,220,2181
2793,109,2213
2794,0,2230
2795,47,2233
2796,101,2342
2797,195,2387
2798,83,2390
2799,211,2410
2800,92,2457
2801,133,2477
2802,98,2498
2803,138,2578
2804,46,2613
2805,43,2614
2806,7,2635
2807,6,2665
2808,128,2688
2809,20,2698
2810,204,2722
2811,135,2754
2812,128,2818
2813,40,2830
2814,220,2916
2815,52,2931
2816,34,21724
2817,81,21748
2818,8,21762
2819,73,21763
2820,55,21780
2821,15,21783
2822,8,21805
2823,11,21809
2824,214,21816
2825,79,21820
2826,132,21846
2827,113,21852
2828,193,21853
2829,179,21856
2830,134,21859
2831,41,21863
2832,128,21884
2833,91,21889
2834,116,21943
2835,58,21944
2836,121,21945
2837,83,21956
2838,173,21977
2839,213,21979
2840,193,21992
2841,100,21999
2842,129,22002
2843,18,22018
2844,98,22024
2845,93,22043
2846,108,22094
2847,87,22096
2848,104,8222
2849,49,8229
2850,24,8237
2851,84,8241
2852,71,8252
2853,6,8253
2854,121,8258
2855,65,8261
2856,8,8266
2857,32,8273
2858,104,8276
2859,81,8294
2860,35,8310
2861,20,8323
2862,6,8336
2863,19,8350
2864,96,8351
2865,212,8358
2866,31,8362
2867,135,8366
2868,29,8371
2869,100,8373
2870,134,8376
2871,0,8383
2872,12,8386
2873,140,8398
2874,133,8402
2875,19,8404
2876,94,8412
2877,13,8414
2878,89,8422
2879,137,8436
2880,216,53584
2881,69,53585
2882,140,53586
2883,125,53587
2884,7,53588
2885,6,53591
2886,211,53594
2887,92,53595
2888,20,53599
2889,208,53600
2890,209,53603
2891,41,53604
2892,97,53609
2893,115,53610
2894,83,53613
2895,75,53619
2896,193,53620
2897,124,53622
2898,44,53624
2899,108,53625
2900,139,53628
2901,20,53629
2902,38,53632
2903,66,53635
2904,209,53636
2905,51,53638
2906,31,53639
2907,213,53641
2908,82,53645
2909,73,53647
2910,71,53650
2911,123,53651
2912,141,16492
2913,68,16503
2914,181,16511
2915,217,16520
2916,137,16527
2917,124,16531
2918,107,16547
2919,207,16555
2920,19,16567
2921,84,16573
2922,138,16578
2923,198,16579
2924,35,16580
2925,128,16596
2926,21,16601
2927,73,16628
2928,11,16651
2929,90,16652
2930,35,16661
2931,139,16686
2932,70,16692
2933,70,16709
2934,32,16712
2935,82,16743
2936,19,16764
2937,52,16765
2938,217,16767
2939,84,16781
2940,82,16792
2941,95,16803
2942,12,16808
2943,79,16818
2944,75,2407
2945,43,2411
2946,86,2412
2947,66,2416
2948,37,2444
2949,127,2462
2950,217,2483
2951,14,2510
2952,6,2532
2953,163,2563
2954,61,2605
2955,8,2647
2956,84,2660
2957,124,2755
2958,61,2756
2959,204,2776
2960,207,2796
2961,141,2812
2962,114,2826
2963,3,2965
2964,73,2987
2965,52,2994
2966,99,3103
2967,140,3105
2968,10,3121
2969,99,3142
2970,3,3155
2971,61,3201
2972,193,3225
2973,129,3288
2974,220,3294
2975,63,3311
2976,94,51743
2977,204,51750
2978,58,51751
2979,136,51758
2980,91,51759
2981,71,51761
2982,68,51782
2983,198,51796
2984,86,51797
2985,217,51800
2986,220,51810
2987,79,51817
2988,83,51822
2989,214,51839
2990,34,51853
2991,78,51859
2992,103,51863
2993,213,51904
2994,96,51908
2995,158,51947
2996,207,51963
2997,58,51971
2998,31,51972
2999,28,51973
3000,3,51977
3001,208,51981
3002,106,51998
3003,110,51999
3004,34,52006
3005,204,52008
3006,127,52017
3007,107,52040
3008,204,12644
3009,58,12661
3010,209,12681
3011,204,12683
3012,64,12685
3013,126,12727
3014,106,12736
3015,77,12742
3016,31,12759
3017,4,12763
3018,12,12779
3019,42,12787
3020,76,12788
3021,139,12792
3022,35,12803
3023,116,12811
3024,66,12825
3025,64,12849
3026,127,12864
3027,52,12871
3028,30,12884
3029,136,12890
3030,140,12895
3031,69,12898
3032,179,12904
3033,193,12929
3034,49,12954
3035,136,12958
3036,8,12968
3037,40,12977
3038,87,13013
3039,185,13021
3040,87,9314
3041,7,9319
3042,64,9326
3043,8,9336
3044,38,9350
3045,198,9387
3046,8,9464
3047,220,9528
3048,52,9556
3049,204,9593
3050,24,9646
3051,70,9658
3052,120,9693
3053,40,9731
3054,45,9736
3055,94,9768
3056,59,9789
3057,112,9809
3058,73,9826
3059,36,9828
3060,124,9838
3061,47,9843
3062,28,9851
3063,8,9882
3064,125,9891
3065,207,9927
3066,41,9939
3067,77,9941
3068,138,9959
3069,204,9963
3070,29,9983
3071,104,9998
3072,13,4250
3073,135,4541
3074,4,4619
3075,131,4671
3076,16,4941
3077,158,5304
3078,117,5633
3079,99,5667
3080,129,5840
3081,111,6551
3082,28,6688
3083,163,6911
3084,103,6967
3085,61,10051
3086,6,10968
3087,94,11016
3088,87,12694
3089,106,13444
3090,35,17347
3091,0,30
3092,86,57
3093,57,126
3094,141,158
3095,57,162
3096,26,187
3097,123,211
3098,220,309
3099,13,580
3100,107,603
3101,204,726
3102,43,970
3103,78,979
3104,71,23731
3105,133,23770
3106,44,23772
3107,34,23778
3108,173,23783
3109,118,23795
3110,72,23805
3111,62,23823
3112,212,23830
3113,67,23834
3114,70,23850
3115,123,23855
3116,109,23864
3117,167,23865
3118,66,23870
3119,106,23872
3120,111,23873
3121,23,23905
3122,107,23908
3123,76,23909
3124,208,23913
3125,17,23925
3126,109,23929
3127,209,23962
3128,107,23964
3129,69,23970
3130,220,23972
3131,31,23976
3132,12,23987
3133,11,23996
3134,69,24004
3135,30,24017
3136,9,8008
3137,58,8062
3138,45,8091
3139,3,8095
3140,108,8107
3141,23,8183
3142,28,8198
3143,208,8220
3144,9,8271
3145,173,8282
3146,72,8363
3147,61,8370
3148,59,8377
3149,8,8392
3150,155,8457
3151,135,8564
3152,193,8576
3153,82,8664
3154,209,8761
3155,173,8832
3156,112,8899
3157,143,8934
3158,16,8977
3159,21,8980
3160,118,8994
3161,35,9017
3162,20,9041
3163,207,9063
3164,91,9156
3165,60,9312
3166,47,9337
3167,42,9349
3168,12,12332
3169,82,12352
3170,12,12370
3171,81,12398
3172,140,12410
3173,46,12419
3174,140,12445
3175,62,12451
3176,78,12467
3177,52,12481
3178,12,12494
3179,208,12499
3180,193,12522
3181,24,12549
3182,47,12554
3183,204,12559
3184,217,12564
3185,179,12573
3186,207,12586
3187,173,12618
3188,103,12652
3189,64,12662
3190,121,12664
3191,110,12674
3192,101,12677
3193,75,12688
3194,130,12692
3195,138,12700
3196,123,12704
3197,82,12747
3198,69,12760
3199,217,12764
3200,64,10462
3201,140,10466
3202,193,10470
3203,34,10472
3204,107,10493
3205,45,10494
3206,63,10506
3207,179,10521
3208,116,10550
3209,111,10554
3210,73,10558
3211,95,10601
3212,71,10614
3213,141,10626
3214,70,10639
3215,136,10647
3216,173,10662
3217,42,10666
3218,20,10667
3219,92,10672
3220,40,10681
3221,91,10698
3222,204,10704
3223,32,10720
3224,140,10721
3225,20,10732
3226,32,10733
3227,71,10745
3228,41,10790
3229,73,10796
3230,9,10829
3231,118,10833
3232,138,55061
3233,93,55063
3234,136,55065
3235,34,55066
3236,11,55071
3237,134,55075
3238,216,55078
3239,67,55083
3240,69,55084
3241,193,55086
3242,127,55099
3243,111,55107
3244,43,55111
3245,91,55138
3246,34,55139
3247,78,55140
3248,64,55142
3249,31,55148
3250,3,55155
3251,211,55157
3252,139,55160
3253,78,55162
3254,198,55168
3255,155,55193
3256,12,55194
3257,88,55196
3258,107,55202
3259,1,55209
3260,31,55216
3261,20,55233
3262,23,55234
3263,118,55239
3264,8,11768
3265,111,11776
3266,35,11785
3267,83,11787
3268,212,11813
3269,211,11845
3270,41,11874
3271,92,11887
3272,11,11889
3273,34,11899
3274,216,11900
3275,208,11905
3276,0,11909
3277,8,11917
3278,220,11921
3279,77,11926
3280,38,11927
3281,86,11935
3282,45,11938
3283,132,11975
3284,19,11981
3285,173,12000
3286,70,12007
3287,123,12040
3288,124,12044
3289,59,12047
3290,94,12053
3291,73,12060
3292,204,12071
3293,111,12084
3294,88,12091
3295,111,12126
3296,61,21711
3297,138,21730
3298,125,21734
3299,79,21739
3300,143,21743
3301,38,21753
3302,124,21754
3303,138,21759
3304,127,21761
3305,61,21786
3306,42,21793
3307,99,21797
3308,120,21803
3309,143,21806
3310,212,21811
3311,28,21868
3312,91,21885
3313,61,21895
3314,75,21896
3315,96,21924
3316,70,21925
3317,129,21933
3318,214,21934
3319,84,21936
3320,58,21937
3321,68,21942
3322,47,21949
3323,84,21955
3324,92,21971
3325,53,21973
3326,35,21978
3327,40,21988
3328,212,17326
3329,60,17338
3330,185,17361
3331,133,17362
3332,61,17395
3333,139,17405
3334,12,17409
3335,96,17416
3336,34,17420
3337,117,17434
3338,120,17446
3339,131,17453
3340,28,17465
3341,95,17475
3342,0,17501
3343,8,17511
3344,4,17525
3345,41,17527
3346,198,17533
3347,193,17571
3348,92,17581
3349,13,17584
3350,64,17611
3351,121,17617
3352,12,17622
3353,94,17623
3354,35,17633
3355,41,17635
3356,87,17663
3357,64,17701
3358,111,17712
3359,37,17713
3360,123,12001
3361,136,12027
3362,11,12029
3363,204,12057
3364,8,12059
3365,140,12110
3366,4,12122
3367,139,12183
3368,193,12189
3369,167,12194
3370,137,12246
3371,173,12340
3372,70,12348
3373,99,12351
3374,106,12366
3375,13,12377
3376,94,12384
3377,104,12396
3378,27,12408
3379,111,12455
3380,204,12458
3381,77,12470
3382,127,12480
3383,207,12485
3384,72,12490
3385,213,12492
3386,77,12555
3387,179,12592
3388,21,12650
3389,44,12679
3390,83,12743
3391,65,12769
3392,77,18963
3393,96,19043
3394,111,19058
3395,137,19068
3396,109,19069
3397,3,19070
3398,180,19127
3399,116,19134
3400,28,19143
3401,61,19151
3402,20,19157
3403,217,19162
3404,131,19168
3405,118,19192
3406,84,19194
3407,97,19203
3408,65,19223
3409,76,19277
3410,125,19370
3411,53,19380
3412,19,19442
3413,76,19451
3414,84,19454
3415,212,19485
3416,131,19488
3417,72,19554
3418,79,19629
3419,137,19647
3420,49,19826
3421,20,19833
3422,64,19836
3423,104,19902
3424,97,49068
3425,8,49071
3426,35,49101
3427,131,49110
3428,94,49111
3429,53,49115
3430,58,49120
3431,208,49122
3432,73,49150
3433,24,49165
3434,123,49168
3435,124,49174
3436,65,49222
3437,35,49230
3438,140,49257
3439,104,49317
3440,84,49326
3441,46,49436
3442,217,49439
3443,32,49481
3444,123,49490
3445,11,49517
3446,7,49527
3447,111,49580
3448,116,49640
3449,124,49662
3450,179,49755
3451,127,49761
3452,94,49774
3453,35,49793
3454,139,49801
3455,4,49804
3456,8,55253
3457,193,55255
3458,99,55258
3459,27,55260
3460,209,55263
3461,87,55264
3462,135,55266
3463,96,55267
3464,91,55276
3465,14,55277
3466,91,55278
3467,34,55279
3468,96,55280
3469,91,55281
3470,84,55282
3471,13,55289
3472,208,55293
3473,40,55296
3474,94,55299
3475,41,55302
3476,96,55305
3477,207,55310
3478,87,55311
3479,89,55312
3480,34,55313
3481,66,55314
3482,204,55316
3483,78,55318
3484,46,55319
3485,10,55322
3486,77,55325
3487,73,55330
3488,179,42721
3489,87,42728
3490,65,42748
3491,217,42754
3492,68,42756
3493,45,42767
3494,34,42770
3495,58,42784
3496,12,42799
3497,135,42808
3498,202,42827
3499,101,42835
3500,118,42836
3501,19,42852
3502,37,42861
3503,113,42905
3504,198,42906
3505,207,42911
3506,45,42919
3507,103,42926
3508,82,42928
3509,82,42941
3510,32,42943
3511,220,42972
3512,125,43001
3513,6,43008
3514,127,43023
3515,217,43048
3516,97,43075
3517,125,43092
3518,61,43095
3519,3,43130
3520,72,45913
3521,141,45918
3522,47,45922
3523,55,45923
3524,54,45924
3525,134,45930
3526,98,45935
3527,64,45936
3528,132,45943
3529,212,45947
3530,14,45951
3531,155,45953
3532,181,45968
3533,96,45969
3534,211,45976
3535,101,45982
3536,35,45983
3537,91,45990
3538,97,45994
3539,58,45998
3540,49,45999
3541,120,46002
3542,43,46003
3543,35,46008
3544,128,46016
3545,52,46017
3546,49,46018
3547,127,46019
3548,107,46023
3549,0,46026
3550,96,46032
3551,217,46033
3552,128,32654
3553,132,32656
3554,125,32658
3555,207,32668
3556,129,32672
3557,68,32677
3558,181,32678
3559,209,32684
3560,57,32691
3561,198,32693
3562,28,32694
3563,98,32706
3564,43,32717
3565,207,32724
3566,7,32732
3567,33,32741
3568,204,32761
3569,82,32767
3570,108,32772
3571,119,32778
3572,193,32780
3573,5,32794
3574,195,32808
3575,94,32814
3576,104,32820
3577,16,32824
3578,65,32832
3579,208,32833
3580,52,32837
3581,141,32855
3582,211,32856
3583,129,32868
3584,78,9218
3585,113,9219
3586,193,9221
3587,45,9227
3588,78,9229
3589,51,9235
3590,98,9242
3591,7,9251
3592,58,9280
3593,137,9284
3594,118,9291
3595,80,9293
3596,207,9306
3597,119,9307
3598,99,9310
3599,52,9313
3600,34,9315
3601,195,9316
3602,59,9334
3603,140,9340
3604,99,9341
3605,20,9342
3606,23,9351
3607,204,9358
3608,51,9363
3609,19,9368
3610,31,9371
3611,132,9376
3612,125,9384
3613,72,9385
3614,68,9390
3615,41,9394
3616,84,17650
3617,78,17658
3618,60,17700
3619,195,17711
3620,21,17719
3621,8,17722
3622,64,17733
3623,209,17758
3624,21,17761
3625,21,17769
3626,212,17792
3627,33,17800
3628,85,17831
3629,1,17854
3630,42,17863
3631,8,17874
3632,47,17917
3633,77,17927
3634,108,17935
3635,58,17937
3636,27,17946
3637,37,17962
3638,107,17980
3639,108,18006
3640,216,18015
3641,140,18032
3642,119,18067
3643,70,18084
3644,130,18169
3645,12,18173
3646,3,18215
3647,42,18223
3648,21,1729
3649,21,1744
3650,97,1754
3651,155,1757
3652,81,1760
3653,217,1774
3654,79,1786
3655,213,1807
3656,12,1808
3657,60,1829
3658,20,1839
3659,91,1858
3660,92,1860
3661,135,1879
3662,101,1885
3663,220,1887
3664,40,1889
3665,37,1890
3666,0,1913
3667,15,1949
3668,45,1952
3669,78,1977
3670,35,1989
3671,21,2039
3672,35,2056
3673,73,2079
3674,207,2087
3675,128,2116
3676,140,2147
3677,13,2154
3678,41,2185
3679,52,2245
3680,123,27781
3681,116,27786
3682,220,27804
3683,79,27815
3684,13,27824
3685,50,27831
3686,216,27844
3687,141,27850
3688,19,27864
3689,113,27866
3690,38,27870
3691,100,27872
3692,17,27874
3693,132,27876
3694,139,27882
3695,52,27891
3696,131,27898
3697,68,27900
3698,77,27905
3699,213,27907
3700,123,27910
3701,129,27915
3702,71,27919
3703,54,27924
3704,121,27928
3705,65,27930
3706,12,27942
3707,34,27948
3708,54,27952
3709,50,27958
3710,31,27965
3711,217,27972
3712,16,40488
3713,140,40490
3714,204,40493
3715,216,40497
3716,7,40502
3717,43,40511
3718,35,40517
3719,209,40518
3720,73,40520
3721,45,40525
3722,34,40531
3723,28,40532
3724,61,40537
3725,104,40538
3726,45,40540
3727,82,40542
3728,130,40543
3729,220,40546
3730,47,40548
3731,208,40550
3732,131,40552
3733,106,40556
3734,204,40559
3735,207,40564
3736,60,40566
3737,100,40570
3738,207,40579
3739,123,40584
3740,99,40585
3741,119,40586
3742,25,40594
3743,198,40601
3744,17,43553
3745,124,43555
3746,31,43557
3747,125,43559
3748,134,43575
3749,54,43576
3750,179,43578
3751,61,43580
3752,158,43586
3753,158,43588
3754,58,43591
3755,64,43592
3756,213,43598
3757,26,43600
3758,52,43603
3759,185,43624
3760,64,43631
3761,75,43634
3762,76,43635
3763,116,43640
3764,63,43644
3765,61,43647
3766,204,43648
3767,19,43650
3768,80,43651
3769,57,43653
3770,12,43656
3771,121,43658
3772,70,43660
3773,70,43663
3774,214,43664
3775,6,43665
3776,94,1236
3777,92,1248
3778,0,1320
3779,71,1335
3780,112,1390
3781,131,1397
3782,13,1398
3783,20,1399
3784,123,1408
3785,6,1417
3786,67,1424
3787,137,1442
3788,9,1479
3789,69,1491
3790,33,1523
3791,20,1547
3792,68,1571
3793,60,1576
3794,104,1625
3795,49,1630
3796,217,1662
3797,65,1667
3798,51,1704
3799,0,1736
3800,51,1775
3801,61,1835
3802,61,1850
3803,98,1866
3804,51,1872
3805,0,1894
3806,23,1908
3807,193,1921
3808,95,404
3809,66,422
3810,83,471
3811,59,502
3812,91,512
3813,35,513
3814,52,514
3815,207,518
3816,173,528
3817,138,540
3818,52,546
3819,55,577
3820,4,604
3821,26,646
3822,87,647
3823,132,653
3824,53,663
3825,119,671
3826,204,689
3827,45,691
3828,3,725
3829,34,751
3830,0,754
3831,131,763
3832,63,792
3833,70,797
3834,204,798
3835,49,800
3836,195,814
3837,26,865
3838,13,866
3839,104,896
3840,213,17079
3841,26,17084
3842,216,17110
3843,118,17115
3844,173,17116
3845,84,17120
3846,62,17140
3847,198,17141
3848,71,17163
3849,137,17201
3850,65,17245
3851,113,17259
3852,101,17270
3853,55,17272
3854,107,17290
3855,85,17310
3856,134,17327
3857,94,17331
3858,81,17333
3859,36,17337
3860,43,17348
3861,30,17354
3862,59,17365
3863,73,17378
3864,73,17381
3865,17,17488
3866,52,17534
3867,111,17570
3868,111,17625
3869,27,17627
3870,79,17637
3871,19,17645
3872,84,59559
3873,11,59560
3874,167,59562
3875,106,59563
3876,141,59565
3877,125,59566
3878,202,59568
3879,96,59569
3880,55,59570
3881,133,59571
3882,34,59572
3883,88,59573
3884,131,59576
3885,216,59577
3886,66,59578
3887,204,59579
3888,208,59582
3889,219,59588
3890,104,59589
3891,45,59590
3892,110,59591
3893,86,59592
3894,88,59593
3895,118,59595
3896,64,59596
3897,59,59597
3898,139,59599
3899,158,59600
3900,87,59603
3901,24,59605
3902,35,59606
3903,181,59608
3904,134,57382
3905,135,57389
3906,70,57394
3907,84,57407
3908,1,57408
3909,76,57413
3910,7,57415
3911,17,57421
3912,84,57424
3913,104,57427
3914,193,57429
3915,130,57433
3916,75,57434
3917,124,57439
3918,47,57442
3919,23,57445
3920,34,57446
3921,19,57452
3922,103,57454
3923,36,57455
3924,209,57458
3925,51,57461
3926,99,57462
3927,73,57464
3928,124,57466
3929,138,57467
3930,167,57469
3931,108,57479
3932,21,57480
3933,121,57484
3934,118,57488
3935,128,57489
3936,16,21240
3937,61,21254
3938,131,21260
3939,133,21261
3940,217,21274
3941,65,21288
3942,107,21324
3943,61,21340
3944,17,21352
3945,220,21359
3946,71,21368
3947,42,21375
3948,8,21410
3949,41,21417
3950,133,21421
3951,100,21445
3952,131,21448
3953,31,21453
3954,68,21462
3955,193,21465
3956,64,21466
3957,220,21469
3958,83,21475
3959,57,21501
3960,121,21504
3961,55,21506
3962,195,21543
3963,91,21561
3964,53,21566
3965,138,21568
3966,95,21571
3967,90,21586
3968,48,19384
3969,181,19386
3970,193,19395
3971,78,19409
3972,71,19410
3973,135,19416
3974,125,19418
3975,77,19446
3976,207,19450
3977,8,19452
3978,115,19476
3979,59,19513
3980,28,19520
3981,220,19521
3982,134,19528
3983,179,19539
3984,62,19562
3985,135,19567
3986,68,19580
3987,21,19586
3988,19,19593
3989,88,19595
3990,70,19603
3991,214,19608
3992,72,19610
3993,131,19611
3994,93,19624
3995,41,19636
3996,43,19642
3997,40,19643
3998,106,19648
3999,123,19684
4000,112,24873
4001,94,24876
4002,125,24880
4003,35,24904
4004,44,24940
4005,138,24951
4006,94,24955
4007,42,24978
4008,20,24980
4009,207,24981
4010,173,24982
4011,88,24988
4012,104,25013
4013,139,25016
4014,118,25074
4015,207,25097
4016,35,25119
4017,193,25147
4018,41,25158
4019,115,25160
4020,70,25172
4021,19,25224
4022,209,25239
4023,143,25353
4024,52,25360
4025,64,25391
4026,70,25392
4027,99,25422
4028,24,25428
4029,0,25459
4030,216,25471
4031,111,25495
4032,78,54454
4033,35,54461
4034,179,54469
4035,123,54470
4036,120,54472
4037,193,54473
4038,19,54474
4039,47,54476
4040,91,54480
4041,14,54481
4042,124,54488
4043,158,54493
4044,128,54496
4045,40,54497
4046,58,54500
4047,68,54501
4048,78,54504
4049,58,54509
4050,116,54510
4051,76,54515
4052,91,54516
4053,202,54520
4054,78,54523
4055,119,54531
4056,195,54533
4057,124,54537
4058,81,54541
4059,49,54543
4060,0,54546
4061,96,54547
4062,3,54548
4063,116,54549
4064,64,3934
4065,91,3950
4066,78,3983
4067,179,4072
4068,14,4097
4069,212,4134
4070,49,4157
4071,207,4160
4072,91,4163
4073,1,4171
4074,49,4179
4075,106,4187
4076,88,4219
4077,209,4234
4078,116,4261
4079,47,4375
4080,61,4388
4081,128,4420
4082,23,4422
4083,116,4456
4084,155,4467
4085,55,4533
4086,86,4545
4087,23,4581
4088,76,4683
4089,220,4780
4090,101,4802
4091,59,4837
4092,0,5100
4093,41,5117
4094,55,5176
4095,180,5248
4096,41,50347
4097,214,50350
4098,34,50354
4099,134,50356
4100,108,50357
4101,173,50370
4102,179,50372
4103,138,50373
4104,107,50375
4105,128,50378
4106,220,50379
4107,8,50383
4108,127,50390
4109,125,50395
4110,163,50400
4111,46,50407
4112,88,50408
4113,17,50419
4114,139,50421
4115,67,50422
4116,60,50431
4117,19,50436
4118,61,50438
4119,73,50440
4120,217,50442
4121,173,50444
4122,123,50446
4123,217,50447
4124,82,50448
4125,65,50451
4126,137,50453
4127,90,50454
4128,92,26435
4129,220,26439
4130,140,26441
4131,128,26448
4132,54,26449
4133,204,26452
4134,60,26453
4135,99,26454
4136,77,26465
4137,60,26468
4138,220,26473
4139,213,26498
4140,39,26516
4141,124,26518
4142,87,26525
4143,35,26529
4144,17,26541
4145,130,26543
4146,220,26544
4147,131,26548
4148,128,26553
4149,119,26564
4150,28,26565
4151,96,26574
4152,220,26576
4153,198,26577
4154,131,26580
4155,132,26583
4156,42,26592
4157,111,26596
4158,101,26601
4159,137,26608
4160,207,26310
4161,26,26312
4162,108,26316
4163,90,26318
4164,58,26322
4165,40,26323
4166,124,26333
4167,129,26334
4168,71,26340
4169,127,26342
4170,211,26345
4171,61,26351
4172,38,26353
4173,94,26355
4174,32,26356
4175,130,26364
4176,31,26373
4177,53,26376
4178,12,26388
4179,4,26390
4180,127,26391
4181,28,26392
4182,70,26394
4183,131,26395
4184,202,26397
4185,45,26399
4186,61,26401
4187,204,26405
4188,73,26411
4189,212,26413
4190,135,26420
4191,39,26421
4192,69,4379
4193,125,4381
4194,6,4391
4195,198,4395
4196,87,4398
4197,70,4430
4198,207,4449
4199,19,4464
4200,180,4470
4201,134,4471
4202,63,4479
4203,158,4525
4204,212,4532
4205,158,4546
4206,46,4570
4207,19,4576
4208,4,4589
4209,195,4599
4210,208,4605
4211,81,4626
4212,113,4629
4213,47,4632
4214,52,4636
4215,91,4638
4216,132,4640
4217,100,4645
4218,78,4660
4219,72,4689
4220,127,4691
4221,3,4693
4222,36,4694
4223,135,4696
4224,193,11896
4225,19,12050
4226,111,12055
4227,6,12063
4228,64,12277
4229,17,12334
4230,49,12424
4231,140,12425
4232,198,12583
4233,180,12597
4234,121,12610
4235,66,12800
4236,97,12805
4237,220,12883
4238,59,13163
4239,214,13170
4240,16,13263
4241,108,13360
4242,204,13731
4243,193,13782
4244,198,13789
4245,63,13889
4246,135,14049
4247,81,14440
4248,18,14579
4249,64,14658
4250,17,14664
4251,13,14773
4252,202,14804
4253,87,14816
4254,70,14872
4255,193,15105
4256,131,4319
4257,82,4325
4258,24,4338
4259,82,4410
4260,180,4494
4261,28,4495
4262,35,4523
4263,137,4535
4264,173,4536
4265,158,4537
4266,129,4549
4267,87,4557
4268,141,4607
4269,0,4687
4270,108,4751
4271,64,4773
4272,40,4794
4273,138,4829
4274,19,4852
4275,20,4871
4276,83,4873
4277,87,4897
4278,40,4904
4279,138,4907
4280,80,4926
4281,19,4936
4282,72,4952
4283,19,4967
4284,33,4968
4285,12,5022
4286,125,5033
4287,24,5042
4288,71,17679
4289,8,17694
4290,82,17698
4291,128,17716
4292,99,17764
4293,13,17766
4294,55,17770
4295,81,17779
4296,78,17786
4297,132,17789
4298,125,17794
4299,204,17803
4300,110,17808
4301,207,17816
4302,109,17826
4303,30,17841
4304,75,17843
4305,70,17857
4306,217,17866
4307,85,17883
4308,17,17889
4309,99,17891
4310,208,17893
4311,17,17960
4312,92,17994
4313,118,17999
4314,37,18002
4315,98,18005
4316,208,18051
4317,27,18059
4318,109,18077
4319,72,18130
4320,97,56295
4321,23,56302
4322,42,56316
4323,73,56317
4324,53,56335
4325,64,56345
4326,60,56346
4327,26,56352
4328,111,56388
4329,108,56410
4330,58,56413
4331,40,56416
4332,62,56452
4333,56,56463
4334,127,56478
4335,129,56497
4336,138,56506
4337,113,56513
4338,6,56521
4339,91,56531
4340,19,56533
4341,8,56544
4342,107,56548
4343,73,56578
4344,51,56581
4345,208,56584
4346,208,56602
4347,20,56615
4348,60,56618
4349,34,56637
4350,63,56645
4351,173,56656
4352,35,44330
4353,139,44333
4354,99,44335
4355,87,44336
4356,68,44340
4357,110,44341
4358,54,44354
4359,209,44357
4360,44,44363
4361,124,44364
4362,58,44365
4363,216,44366
4364,207,44376
4365,111,44385
4366,80,44393
4367,10,44403
4368,41,44410
4369,163,44424
4370,208,44426
4371,128,44428
4372,78,44433
4373,120,44441
4374,96,44446
4375,131,44449
4376,55,44451
4377,61,44453
4378,14,44455
4379,72,44457
4380,51,44459
4381,78,44470
4382,14,44474
4383,173,44486
4384,124,8733
4385,204,8745
4386,12,8753
4387,173,8755
4388,0,8774
4389,71,8784
4390,91,8787
4391,61,8793
4392,40,8796
4393,9,8806
4394,13,8816
4395,83,8827
4396,207,8861
4397,98,8862
4398,44,8863
4399,4,8864
4400,216,8870
4401,131,8896
4402,43,8919
4403,104,8931
4404,2,8990
4405,173,9004
4406,84,9010
4407,115,9033
4408,3,9040
4409,55,9076
4410,91,9086
4411,207,9147
4412,2,9158
4413,61,9163
4414,100,9180
4415,34,9308
4416,140,8417
4417,124,8420
4418,179,8472
4419,98,8495
4420,49,8588
4421,129,8637
4422,70,8656
4423,19,8658
4424,64,8679
4425,133,8708
4426,134,8709
4427,16,8724
4428,0,8786
4429,83,8817
4430,15,8824
4431,32,8882
4432,98,8892
4433,49,8969
4434,40,8981
4435,49,8983
4436,27,9064
4437,70,9080
4438,53,9090
4439,28,9105
4440,195,9107
4441,127,9115
4442,34,9144
4443,113,9152
4444,94,9172
4445,24,9177
4446,141,9186
4447,141,9193
4448,195,47844
4449,213,47847
4450,8,47849
4451,106,47851
4452,82,47858
4453,52,47859
4454,207,47861
4455,2,47863
4456,128,47868
4457,29,47869
4458,66,47876
4459,24,47880
4460,211,47882
4461,84,47883
4462,8,47885
4463,72,47892
4464,62,47900
4465,85,47901
4466,64,47902
4467,8,47904
4468,156,47909
4469,68,47912
4470,135,47915
4471,92,47916
4472,8,47917
4473,198,47919
4474,37,47922
4475,208,47925
4476,60,47932
4477,119,47936
4478,173,47937
4479,207,47938
4480,61,13285
4481,8,13293
4482,29,13311
4483,220,13342
4484,51,13366
4485,16,13368
4486,79,13385
4487,40,13430
4488,208,13486
4489,53,13509
4490,103,13527
4491,29,13543
4492,3,13618
4493,52,13624
4494,44,13664
4495,137,13675
4496,117,13688
4497,12,13762
4498,118,13808
4499,71,13821
4500,24,13834
4501,34,13846
4502,114,13868
4503,109,13905
4504,83,13926
4505,46,13982
4506,20,14016
4507,78,14043
4508,128,14050
4509,173,14067
4510,92,14072
4511,220,14115
4512,64,16851
4513,73,16867
4514,124,16875
4515,181,16879
4516,13,16881
4517,62,16898
4518,64,16918
4519,40,16919
4520,87,16931
4521,84,16942
4522,207,16948
4523,101,16949
4524,73,16955
4525,109,16959
4526,83,16975
4527,43,17014
4528,179,17034
4529,139,17043
4530,23,17061
4531,140,17072
4532,134,17073
4533,4,17087
4534,179,17090
4535,78,17129
4536,137,17155
4537,214,17164
4538,51,17168
4539,124,17172
4540,106,17174
4541,115,17180
4542,4,17185
4543,61,17195
4544,131,35549
4545,220,35557
4546,78,35558
4547,52,35563
4548,107,35588
4549,29,35592
4550,204,35598
4551,127,35611
4552,131,35624
4553,173,35625
4554,71,35636
4555,78,35658
4556,26,35660
4557,0,35663
4558,55,35668
4559,65,35675
4560,84,35679
4561,60,35680
4562,37,35685
4563,70,35690
4564,47,35692
4565,123,35693
4566,78,35696
4567,19,35724
4568,213,35746
4569,47,35748
4570,202,35749
4571,3,35751
4572,78,35752
4573,134,35755
4574,158,35756
4575,99,35762
4576,0,59607
4577,115,59618
4578,92,59644
4579,48,59648
4580,193,59670
4581,106,59672
4582,136,59686
4583,220,59732
4584,126,59743
4585,96,59762
4586,64,59812
4587,204,59813
4588,213,59818
4589,126,59821
4590,87,59838
4591,53,59872
4592,82,59874
4593,129,59881
4594,129,59884
4595,34,59886
4596,66,59893
4597,126,59898
4598,127,59991
4599,1,60030
4600,195,60064
4601,116,60126
4602,134,60151
4603,58,60189
4604,79,60192
4605,65,60208
4606,64,60228
4607,113,60276
4608,204,21500
4609,125,21505
4610,49,21534
4611,76,21537
4612,70,21542
4613,66,21551
4614,82,21552
4615,123,21563
4616,195,21569
4617,70,21576
4618,217,21579
4619,78,21589
4620,207,21592
4621,180,21602
4622,117,21616
4623,209,21631
4624,64,21641
4625,112,21642
4626,115,21654
4627,64,21658
4628,129,21661
4629,217,21669
4630,21,21672
4631,58,21677
4632,40,21692
4633,51,21694
4634,119,21696
4635,49,21698
4636,5,21701
4637,16,21703
4638,193,21706
4639,65,21708
4640,32,4994
4641,0,5005
4642,123,5069
4643,0,5072
4644,51,5074
4645,71,5089
4646,91,5119
4647,92,5202
4648,0,5242
4649,32,5256
4650,117,5307
4651,41,5323
4652,70,5326
4653,217,5334
4654,121,5341
4655,132,5344
4656,41,5347
4657,1,5355
4658,33,5360
4659,81,5366
4660,100,5398
4661,99,5403
4662,8,5410
4663,131,5422
4664,118,5465
4665,217,5468
4666,212,5499
4667,131,5502
4668,131,5543
4669,68,5551
4670,32,5562
4671,8,5583
4672,217,50080
4673,1,50082
4674,220,50085
4675,131,50086
4676,198,50092
4677,6,50095
4678,137,50097
4679,70,50098
4680,103,50100
4681,217,50107
4682,107,50108
4683,204,50109
4684,61,50110
4685,34,50111
4686,67,50119
4687,47,50122
4688,198,50124
4689,180,50126
4690,179,50127
4691,87,50129
4692,10,50131
4693,24,50132
4694,94,50134
4695,68,50142
4696,204,50143
4697,94,50145
4698,18,50147
4699,179,50148
4700,0,50151
4701,209,50152
4702,28,50155
4703,82,50159
4704,58,8749
4705,195,8756
4706,34,8778
4707,69,8788
4708,119,8790
4709,137,8795
4710,20,8802
4711,65,8819
4712,2,8844
4713,0,8845
4714,143,8851
4715,73,8873
4716,124,8888
4717,70,8891
4718,119,8893
4719,79,8898
4720,13,8904
4721,65,8910
4722,58,8924
4723,204,8927
4724,3,8940
4725,124,8942
4726,41,8950
4727,113,8954
4728,87,8955
4729,117,8961
4730,92,8962
4731,195,8978
4732,8,8987
4733,173,8999
4734,32,9019
4735,53,9023
4736,79,35606
4737,97,35607
4738,87,35610
4739,76,35618
4740,127,35619
4741,195,35623
4742,43,35631
4743,73,35635
4744,8,35637
4745,106,35639
4746,185,35642
4747,27,35645
4748,179,35649
4749,54,35650
4750,35,35651
4751,52,35657
4752,83,35669
4753,8,35674
4754,52,35677
4755,17,35695
4756,217,35698
4757,135,35701
4758,100,35702
4759,30,35705
4760,70,35713
4761,123,35728
4762,78,35739
4763,34,35761
4764,111,35764
4765,86,35766
4766,35,35770
4767,35,35781
4768,11,10751
4769,59,10760
4770,73,10887
4771,27,10901
4772,216,10943
4773,57,10947
4774,9,10949
4775,66,10957
4776,62,10960
4777,62,10966
4778,49,10992
4779,207,11025
4780,126,11026
4781,81,11036
4782,214,11043
4783,8,11047
4784,19,11054
4785,208,11057
4786,9,11090
4787,139,11091
4788,110,11118
4789,127,11121
4790,27,11134
4791,23,11149
4792,106,11154
4793,87,11183
4794,110,11204
4795,185,11220
4796,139,11235
4797,32,11240
4798,20,11241
4799,77,11261
4800,65,42817
4801,23,42866
4802,106,42871
4803,62,42876
4804,141,42877
4805,67,42880
4806,133,42908
4807,212,42917
4808,61,42923
4809,91,42930
4810,57,42931
4811,217,42933
4812,0,42957
4813,123,42983
4814,52,43013
4815,0,43044
4816,214,43047
4817,27,43058
4818,180,43104
4819,58,43110
4820,82,43114
4821,100,43118
4822,70,43122
4823,98,43141
4824,81,43146
4825,204,43174
4826,118,43192
4827,75,43226
4828,119,43239
4829,20,43274
4830,143,43296
4831,42,43315
4832,17,41614
4833,70,41621
4834,7,41622
4835,94,41623
4836,133,41625
4837,88,41662
4838,213,41671
4839,8,41683
4840,195,41688
4841,60,41695
4842,14,41700
4843,217,41701
4844,41,41704
4845,212,41713
4846,131,41721
4847,82,41722
4848,27,41723
4849,116,41746
4850,108,41754
4851,24,41756
4852,104,41760
4853,8,41763
4854,104,41765
4855,8,41767
4856,130,41768
4857,204,41773
4858,20,41777
4859,131,41785
4860,24,41789
4861,209,41795
4862,0,41796
4863,217,41799
4864,62,40071
4865,17,40073
4866,173,40091
4867,58,40110
4868,140,40129
4869,185,40151
4870,0,40152
4871,37,40160
4872,12,40162
4873,35,40163
4874,92,40167
4875,78,40172
4876,21,40184
4877,21,40188
4878,127,40201
4879,14,40202
4880,67,40207
4881,131,40210
4882,26,40211
4883,216,40213
4884,3,40220
4885,213,40224
4886,49,40226
4887,35,40228
4888,97,40233
4889,216,40262
4890,70,40265
4891,179,40268
4892,27,40279
4893,41,40281
4894,217,40282
4895,125,40285
4896,204,29628
4897,35,29639
4898,90,29644
4899,179,29665
4900,80,29671
4901,24,29676
4902,59,29680
4903,94,29688
4904,217,29715
4905,72,29716
4906,84,29717
4907,130,29725
4908,3,29729
4909,195,29731
4910,62,29734
4911,87,29756
4912,20,29758
4913,4,29760
4914,23,29761
4915,97,29779
4916,40,29780
4917,16,29796
4918,2,29873
4919,98,29926
4920,1,29932
4921,123,29955
4922,109,29975
4923,80,29976
4924,19,29977
4925,181,29983
4926,220,29987
4927,128,30033
4928,70,14438
4929,24,14456
4930,64,14498
4931,49,14502
4932,117,14538
4933,121,14542
4934,109,14555
4935,26,14612
4936,58,14645
4937,94,14666
4938,3,14692
4939,181,14707
4940,52,14756
4941,78,14769
4942,53,14772
4943,106,14794
4944,213,14803
4945,47,14880
4946,78,14886
4947,10,14928
4948,94,14929
4949,217,14939
4950,204,14953
4951,207,14959
4952,124,14968
4953,173,14990
4954,97,14999
4955,109,15004
4956,45,15055
4957,104,15059
4958,198,15116
4959,103,15140
4960,216,28239
4961,76,28243
4962,68,28248
4963,181,28252
4964,98,28255
4965,131,28256
4966,167,28260
4967,193,28273
4968,64,28276
4969,62,28283
4970,73,28285
4971,141,28286
4972,21,28287
4973,35,28288
4974,27,28298
4975,193,28303
4976,143,28304
4977,55,28314
4978,137,28323
4979,68,28333
4980,213,28336
4981,114,28337
4982,12,28343
4983,43,28346
4984,220,28354
4985,55,28357
4986,41,28359
4987,30,28361
4988,65,28363
4989,8,28365
4990,185,28373
4991,137,28376
4992,209,33989
4993,12,34049
4994,97,34085
4995,91,34182
4996,53,34183
4997,85,34196
4998,179,34228
4999,73,34235
5000,88,34250
5001,75,34254
5002,78,34306
5003,21,34310
5004,13,34352
5005,19,34368
5006,67,34391
5007,99,34399
5008,47,34557
5009,109,34727
5010,62,34789
5011,58,34826
5012,195,34843
5013,72,34881
5014,125,34947
5015,131,34965
5016,185,34983
5017,100,35044
5018,195,35046
5019,73,35072
5020,35,35100
5021,106,35184
5022,118,35201
5023,57,35217
5024,21,47115
5025,137,47119
5026,129,47120
5027,35,47122
5028,34,47124
5029,138,47125
5030,51,47126
5031,62,47128
5032,98,47130
5033,8,47132
5034,193,47133
5035,41,47138
5036,56,47141
5037,216,47143
5038,17,47146
5039,181,47152
5040,207,47155
5041,208,47157
5042,83,47160
5043,87,47162
5044,76,47164
5045,141,47167
5046,71,47169
5047,193,47173
5048,12,47174
5049,47,47179
5050,47,47180
5051,30,47182
5052,128,47183
5053,23,47186
5054,133,47187
5055,27,47191
5056,163,21314
5057,104,21322
5058,44,21328
5059,28,21332
5060,212,21335
5061,111,21376
5062,71,21381
5063,99,21399
5064,37,21413
5065,79,21418
5066,130,21428
5067,2,21491
5068,55,21511
5069,43,21513
5070,119,21521
5071,3,21522
5072,211,21523
5073,104,21525
5074,42,21529
5075,202,21559
5076,106,21567
5077,99,21572
5078,77,21583
5079,12,21600
5080,68,21603
5081,106,21636
5082,108,21638
5083,41,21689
5084,47,21710
5085,134,21722
5086,106,21766
5087,58,21777
5088,4,9605
5089,173,9613
5090,91,9641
5091,79,9671
5092,195,9674
5093,45,9676
5094,213,9682
5095,68,9683
5096,3,9684
5097,163,9685
5098,79,9697
5099,135,9708
5100,24,9719
5101,173,9722
5102,117,9726
5103,12,9727
5104,27,9733
5105,204,9734
5106,97,9735
5107,82,9741
5108,209,9747
5109,61,9748
5110,104,9749
5111,23,9750
5112,91,9751
5113,58,9758
5114,21,9762
5115,35,9779
5116,79,9793
5117,132,9795
5118,21,9805
5119,35,9938
5120,92,18915
5121,47,18918
5122,204,18948
5123,0,18951
5124,71,18955
5125,70,18962
5126,109,18967
5127,55,18972
5128,66,18992
5129,123,19002
5130,118,19025
5131,204,19046
5132,12,19050
5133,114,19059
5134,217,19060
5135,62,19088
5136,46,19102
5137,76,19115
5138,3,19118
5139,117,19136
5140,179,19139
5141,143,19144
5142,134,19163
5143,47,19175
5144,128,19189
5145,106,19197
5146,94,19213
5147,65,19216
5148,220,19226
5149,92,19232
5150,34,19233
5151,214,19245
5152,54,15744
5153,111,15767
5154,35,15768
5155,73,15773
5156,68,15792
5157,97,15796
5158,109,15803
5159,82,15804
5160,77,15813
5161,143,15847
5162,13,15848
5163,106,15851
5164,45,15867
5165,115,15893
5166,128,15897
5167,44,15899
5168,216,15929
5169,124,15967
5170,111,15968
5171,139,15980
5172,38,15984
5173,114,16000
5174,108,16003
5175,12,16006
5176,71,16010
5177,35,16018
5178,180,16043
5179,120,16066
5180,76,16076
5181,193,16084
5182,40,16113
5183,62,16120
5184,207,14305
5185,117,14344
5186,21,14350
5187,78,14352
5188,220,14377
5189,72,14386
5190,94,14409
5191,70,14411
5192,64,14458
5193,135,14460
5194,76,14462
5195,107,14468
5196,19,14469
5197,107,14596
5198,82,14730
5199,94,14741
5200,111,14775
5201,0,14849
5202,217,14876
5203,217,14899
5204,99,14924
5205,217,14944
5206,158,15006
5207,69,15064
5208,131,15075
5209,134,15083
5210,61,15098
5211,63,15107
5212,7,15130
5213,212,15249
5214,62,15258
5215,140,15273
5216,217,38487
5217,62,38490
5218,56,38493
5219,121,38495
5220,143,38502
5221,84,38508
5222,212,38517
5223,4,38521
5224,213,38522
5225,100,38529
5226,106,38534
5227,208,38540
5228,73,38542
5229,216,38543
5230,116,38548
5231,216,38549
5232,131,38552
5233,76,38555
5234,17,38561
5235,3,38565
5236,179,38571
5237,71,38572
5238,125,38579
5239,138,38588
5240,134,38594
5241,82,38602
5242,104,38605
5243,106,38608
5244,41,38609
5245,217,38611
5246,106,38618
5247,217,38620
5248,130,59803
5249,55,59804
5250,67,59806
5251,8,59807
5252,106,59808
5253,158,59809
5254,84,59810
5255,53,59811
5256,131,59814
5257,217,59816
5258,140,59817
5259,204,59819
5260,198,59820
5261,135,59824
5262,204,59828
5263,117,59829
5264,30,59831
5265,107,59832
5266,195,59833
5267,107,59834
5268,220,59835
5269,220,59836
5270,106,59837
5271,91,59839
5272,59,59841
5273,94,59842
5274,101,59843
5275,62,59844
5276,107,59845
5277,181,59846
5278,16,59847
5279,108,59850
5280,73,55964
5281,47,55965
5282,69,55968
5283,51,55970
5284,89,55971
5285,109,55974
5286,87,55975
5287,41,55976
5288,207,55977
5289,11,55978
5290,8,55980
5291,61,55983
5292,69,55985
5293,135,55986
5294,20,55987
5295,52,55988
5296,124,55989
5297,88,55998
5298,70,56001
5299,29,56003
5300,46,56004
5301,55,56008
5302,25,56010
5303,55,56011
5304,11,56013
5305,29,56014
5306,6,56015
5307,198,56023
5308,111,56024
5309,33,56027
5310,41,56028
5311,55,56029
5312,38,52261
5313,216,52269
5314,134,52274
5315,45,52277
5316,19,52278
5317,73,52279
5318,44,52282
5319,20,52287
5320,204,52288
5321,2,52291
5322,111,52297
5323,127,52299
5324,181,52301
5325,143,52302
5326,163,52303
5327,58,52304
5328,58,52305
5329,91,52306
5330,209,52313
5331,8,52320
5332,58,52332
5333,34,52340
5334,195,52348
5335,107,52355
5336,55,52365
5337,217,52373
5338,68,52374
5339,70,52378
5340,9,52387
5341,62,52390
5342,19,52392
5343,78,52393
5344,32,56939
5345,127,56958
5346,17,56964
5347,125,56978
5348,2,56998
5349,16,57000
5350,207,57005
5351,43,57026
5352,47,57073
5353,19,57086
5354,87,57105
5355,87,57118
5356,3,57123
5357,111,57131
5358,12,57137
5359,212,57153
5360,107,57164
5361,112,57166
5362,138,57172
5363,204,57173
5364,132,57192
5365,137,57200
5366,181,57202
5367,0,57203
5368,47,57206
5369,116,57216
5370,118,57259
5371,87,57263
5372,73,57277
5373,70,57284
5374,92,57296
5375,21,57322
5376,81,33695
5377,44,33704
5378,63,33709
5379,115,33726
5380,213,33728
5381,99,33745
5382,82,33746
5383,86,33768
5384,113,33806
5385,45,33817
5386,134,33825
5387,138,33831
5388,209,33848
5389,95,33850
5390,67,33853
5391,208,33861
5392,52,33886
5393,26,33891
5394,75,33894
5395,107,33902
5396,7,33903
5397,96,33907
5398,124,33910
5399,37,33911
5400,118,33933
5401,31,33946
5402,14,33955
5403,92,33960
5404,84,33978
5405,35,33996
5406,198,34007
5407,212,34018
5408,16,31990
5409,209,31994
5410,88,31995
5411,158,32001
5412,88,32006
5413,179,32027
5414,114,32029
5415,179,32030
5416,204,32036
5417,2,32037
5418,52,32042
5419,118,32060
5420,65,32070
5421,99,32071
5422,43,32074
5423,127,32076
5424,213,32077
5425,158,32084
5426,138,32086
5427,98,32087
5428,47,32096
5429,76,32108
5430,58,32110
5431,24,32112
5432,138,32120
5433,8,32122
5434,121,32127
5435,163,32134
5436,73,32141
5437,138,32145
5438,207,32150
5439,77,32151
5440,119,50169
5441,78,50174
5442,99,50178
5443,44,50179
5444,87,50180
5445,118,50181
5446,4,50184
5447,217,50186
5448,193,50188
5449,84,50190
5450,140,50197
5451,57,50199
5452,134,50201
5453,123,50202
5454,78,50203
5455,68,50204
5456,61,50205
5457,128,50206
5458,5,50208
5459,214,50210
5460,61,50214
5461,139,50217
5462,155,50218
5463,12,50222
5464,118,50223
5465,70,50224
5466,135,50226
5467,93,50229
5468,93,50231
5469,109,50234
5470,108,50235
5471,73,50237
5472,118,13780
5473,211,13818
5474,68,13822
5475,78,13823
5476,209,13845
5477,73,13855
5478,132,13858
5479,43,13871
5480,93,13881
5481,193,13903
5482,35,13912
5483,108,13949
5484,77,13981
5485,13,13987
5486,37,14021
5487,57,14036
5488,18,14083
5489,94,14094
5490,78,14168
5491,9,14208
5492,71,14237
5493,9,14242
5494,53,14270
5495,88,14293
5496,216,14302
5497,179,14322
5498,131,14349
5499,72,14353
5500,68,14365
5501,3,14389
5502,24,14410
5503,13,14415
5504,12,47631
5505,63,47632
5506,208,47633
5507,103,47634
5508,27,47637
5509,58,47643
5510,213,47647
5511,35,47650
5512,49,47661
5513,3,47662
5514,93,47666
5515,12,47667
5516,51,47669
5517,58,47671
5518,123,47677
5519,173,47693
5520,205,47694
5521,61,47696
5522,64,47702
5523,212,47706
5524,128,47715
5525,65,47718
5526,133,47721
5527,195,47724
5528,94,47727
5529,59,47728
5530,96,47729
5531,23,47733
5532,29,47734
5533,97,47735
5534,216,47736
5535,214,47737
5536,217,47646
5537,216,47648
5538,2,47659
5539,86,47665
5540,87,47676
5541,216,47688
5542,109,47705
5543,143,47713
5544,4,47726
5545,34,47732
5546,59,47746
5547,33,47747
5548,134,47749
5549,96,47753
5550,30,47755
5551,180,47763
5552,158,47783
5553,68,47785
5554,90,47790
5555,58,47804
5556,84,47808
5557,29,47813
5558,139,47818
5559,135,47821
5560,22,47829
5561,61,47834
5562,8,47852
5563,131,47853
5564,46,47854
5565,92,47865
5566,132,47873
5567,111,47875
5568,16,51684
5569,117,51686
5570,97,51694
5571,99,51699
5572,216,51700
5573,217,51709
5574,41,51711
5575,62,51715
5576,124,51717
5577,57,51730
5578,116,51732
5579,46,51734
5580,86,51736
5581,64,51744
5582,84,51749
5583,109,51754
5584,111,51776
5585,24,51783
5586,198,51792
5587,204,51798
5588,139,51801
5589,204,51802
5590,65,51803
5591,20,51804
5592,136,51808
5593,37,51814
5594,28,51816
5595,84,51821
5596,107,51834
5597,14,51837
5598,63,51840
5599,91,51844
5600,35,28310
5601,32,28334
5602,138,28342
5603,158,28350
5604,65,28351
5605,14,28374
5606,94,28392
5607,105,28425
5608,112,28432
5609,65,28477
5610,79,28501
5611,35,28512
5612,0,28550
5613,124,28560
5614,20,28569
5615,98,28578
5616,12,28580
5617,211,28594
5618,136,28676
5619,132,28680
5620,65,28701
5621,120,28730
5622,134,28740
5623,195,28781
5624,23,28792
5625,92,28796
5626,214,28797
5627,58,28801
5628,106,28848
5629,51,28874
5630,128,28923
5631,44,28960
5632,51,12437
5633,134,12525
5634,115,12588
5635,163,12603
5636,204,12613
5637,35,12629
5638,3,12656
5639,83,12657
5640,59,12680
5641,94,12697
5642,91,12709
5643,139,12730
5644,70,12775
5645,35,12778
5646,209,12804
5647,14,12835
5648,7,12861
5649,179,12875
5650,108,12880
5651,47,12944
5652,68,12951
5653,49,12953
5654,68,12979
5655,109,13018
5656,46,13032
5657,120,13064
5658,126,13098
5659,67,13173
5660,111,13254
5661,216,13288
5662,125,13313
5663,8,13351
5664,46,44727
5665,27,44729
5666,108,44730
5667,211,44731
5668,43,44739
5669,209,44742
5670,44,44745
5671,179,44746
5672,143,44749
5673,12,44752
5674,99,44757
5675,119,44767
5676,104,44770
5677,198,44777
5678,136,44778
5679,97,44779
5680,109,44784
5681,55,44788
5682,87,44791
5683,79,44796
5684,68,44799
5685,193,44803
5686,120,44811
5687,213,44813
5688,124,44816
5689,38,44819
5690,127,44821
5691,99,44824
5692,185,44828
5693,12,44829
5694,42,44830
5695,101,44833
5696,65,59302
5697,195,59303
5698,17,59305
5699,131,59307
5700,4,59310
5701,65,59314
5702,127,59315
5703,63,59316
5704,58,59318
5705,90,59322
5706,87,59323
5707,24,59324
5708,19,59325
5709,16,59326
5710,143,59327
5711,81,59328
5712,81,59329
5713,73,59330
5714,0,59331
5715,19,59335
5716,34,59336
5717,77,59337
5718,28,59338
5719,99,59339
5720,44,59340
5721,133,59342
5722,8,59343
5723,212,59344
5724,78,59345
5725,220,59346
5726,91,59347
5727,130,59348
5728,179,44024
5729,70,44039
5730,131,44045
5731,119,44062
5732,80,44063
5733,3,44074
5734,88,44089
5735,108,44101
5736,82,44105
5737,115,44111
5738,75,44118
5739,76,44119
5740,167,44126
5741,5,44129
5742,128,44132
5743,134,44133
5744,138,44143
5745,72,44149
5746,7,44158
5747,68,44159
5748,55,44167
5749,75,44168
5750,111,44173
5751,104,44175
5752,42,44177
5753,208,44181
5754,130,44203
5755,21,44204
5756,207,44210
5757,185,44222
5758,128,44240
5759,30,44243
5760,92,58623
5761,118,58624
5762,134,58625
5763,73,58627
5764,95,58628
5765,19,58631
5766,163,58632
5767,20,58634
5768,136,58635
5769,4,58637
5770,198,58639
5771,72,58641
5772,116,58642
5773,69,58644
5774,111,58645
5775,62,58647
5776,29,58648
5777,139,58649
5778,138,58651
5779,116,58652
5780,100,58653
5781,21,58657
5782,114,58658
5783,129,58662
5784,216,58664
5785,137,58666
5786,13,58667
5787,124,58668
5788,180,58669
5789,34,58671
5790,113,58672
5791,70,58673
5792,65,38890
5793,204,38893
5794,73,38895
5795,78,38902
5796,101,38905
5797,98,38907
5798,204,38916
5799,64,38926
5800,72,38928
5801,179,38943
5802,213,38944
5803,61,38948
5804,135,38977
5805,220,38980
5806,35,38994
5807,70,38995
5808,204,39002
5809,60,39011
5810,107,39013
5811,97,39016
5812,163,39017
5813,20,39023
5814,69,39030
5815,17,39034
5816,138,39035
5817,0,39047
5818,131,39063
5819,68,39068
5820,9,39074
5821,125,39086
5822,42,39108
5823,61,39115
5824,23,14351
5825,20,14355
5826,12,14371
5827,42,14376
5828,34,14399
5829,43,14404
5830,108,14407
5831,132,14420
5832,123,14446
5833,121,14448
5834,120,14558
5835,133,14599
5836,116,14601
5837,54,14629
5838,34,14676
5839,17,14677
5840,62,14687
5841,173,14700
5842,13,14705
5843,195,14721
5844,204,14728
5845,31,14762
5846,9,14765
5847,41,14778
5848,55,14781
5849,13,14811
5850,118,14829
5851,101,14840
5852,94,14855
5853,51,14865
5854,9,14867
5855,212,14870
5856,91,9265
5857,81,9269
5858,216,9271
5859,213,9282
5860,87,9283
5861,111,9286
5862,213,9287
5863,207,9294
5864,97,9302
5865,53,9320
5866,91,9327
5867,216,9328
5868,134,9331
5869,137,9339
5870,167,9344
5871,51,9345
5872,38,9348
5873,6,9354
5874,70,9355
5875,108,9366
5876,41,9373
5877,37,9377
5878,117,9379
5879,208,9382
5880,92,9383
5881,209,9388
5882,34,9404
5883,7,9410
5884,27,9422
5885,35,9428
5886,204,9429
5887,124,9430
5888,110,19630
5889,28,19632
5890,64,19662
5891,208,19679
5892,28,19738
5893,91,19743
5894,124,19745
5895,111,19769
5896,213,19773
5897,106,19774
5898,61,19823
5899,213,19940
5900,58,19950
5901,48,19969
5902,111,19993
5903,128,20015
5904,207,20017
5905,193,20021
5906,179,20023
5907,135,20052
5908,111,20057
5909,65,20065
5910,12,20079
5911,34,20086
5912,88,20118
5913,76,20158
5914,13,20160
5915,137,20164
5916,207,20171
5917,180,20174
5918,17,20190
5919,134,20215
5920,58,33074
5921,50,33078
5922,185,33082
5923,58,33100
5924,70,33106
5925,198,33116
5926,26,33128
5927,213,33133
5928,8,33135
5929,35,33138
5930,62,33146
5931,84,33148
5932,27,33150
5933,61,33152
5934,94,33157
5935,207,33164
5936,13,33179
5937,198,33188
5938,13,33190
5939,47,33197
5940,43,33199
5941,4,33206
5942,9,33212
5943,204,33226
5944,109,33236
5945,27,33255
5946,220,33276
5947,30,33279
5948,217,33291
5949,76,33294
5950,120,33295
5951,109,33297
5952,213,42366
5953,101,42405
5954,134,42426
5955,128,42456
5956,131,42457
5957,12,42465
5958,4,42497
5959,41,42504
5960,212,42558
5961,198,42602
5962,130,42603
5963,198,42639
5964,118,42647
5965,4,42656
5966,41,42665
5967,13,42684
5968,173,42725
5969,77,42732
5970,61,42758
5971,20,42803
5972,43,42838
5973,67,42846
5974,217,42882
5975,92,42947
5976,84,43007
5977,134,43021
5978,135,43062
5979,45,43131
5980,119,43135
5981,220,43171
5982,62,43178
5983,23,43207
5984,204,55333
5985,119,55337
5986,58,55338
5987,130,55339
5988,173,55342
5989,115,55347
5990,131,55351
5991,88,55358
5992,4,55360
5993,208,55362
5994,66,55363
5995,61,55366
5996,104,55367
5997,133,55368
5998,20,55370
5999,109,55371
6000,106,55373
6001,45,55375
6002,140,55381
6003,217,55387
6004,214,55391
6005,124,55393
6006,19,55397
6007,23,55400
6008,65,55401
6009,83,55402
6010,89,55404
6011,131,55408
6012,91,55409
6013,68,55410
6014,68,55411
6015,107,55415
6016,19,25993
6017,27,25995
6018,124,26012
6019,202,26015
6020,8,26026
6021,207,26029
6022,82,26034
6023,72,26048
6024,45,26051
6025,111,26059
6026,185,26078
6027,96,26088
6028,111,26090
6029,181,26094
6030,208,26111
6031,127,26112
6032,38,26117
6033,66,26119
6034,2,26123
6035,207,26133
6036,208,26136
6037,181,26146
6038,4,26151
6039,8,26167
6040,70,26171
6041,109,26179
6042,32,26187
6043,208,26192
6044,207,26194
6045,129,26195
6046,217,26198
6047,20,26199
6048,133,25624
6049,127,25626
6050,21,25632
6051,143,25637
6052,98,25656
6053,64,25679
6054,31,25686
6055,133,25687
6056,91,25688
6057,55,25689
6058,59,25691
6059,132,25714
6060,34,25752
6061,45,25754
6062,132,25772
6063,62,25781
6064,193,25785
6065,88,25788
6066,55,25797
6067,212,25819
6068,181,25847
6069,35,25871
6070,208,25872
6071,19,25902
6072,75,25926
6073,32,25935
6074,53,25988
6075,107,25990
6076,3,25999
6077,86,26017
6078,115,26020
6079,0,26024
6080,35,3587
6081,63,3657
6082,220,3682
6083,26,3692
6084,20,3703
6085,40,3735
6086,212,3737
6087,64,3746
6088,47,3747
6089,2,3750
6090,91,3795
6091,57,3855
6092,68,3857
6093,57,3883
6094,98,3913
6095,9,3919
6096,8,3929
6097,140,3944
6098,104,3961
6099,27,4015
6100,207,4034
6101,35,4035
6102,61,4037
6103,63,4091
6104,68,4137
6105,36,4147
6106,135,4178
6107,4,4191
6108,12,4223
6109,0,4237
6110,87,4241
6111,220,4308
6112,11,57595
6113,40,57642
6114,61,58062
6115,46,58153
6116,9,58581
6117,133,58589
6118,8,457
6119,3,480
6120,40,500
6121,19,522
6122,81,644
6123,179,658
6124,86,682
6125,41,810
6126,41,819
6127,167,913
6128,77,933
6129,130,1569
6130,93,1595
6131,124,2338
6132,111,2378
6133,45,2556
6134,76,3340
6135,52,3371
6136,21,3486
6137,19,3522
6138,9,3677
6139,113,4468
6140,54,4956
6141,141,4978
6142,51,4980
6143,120,5015
6144,99,27473
6145,106,27499
6146,181,27502
6147,110,27503
6148,119,27507
6149,100,27513
6150,181,27517
6151,72,27522
6152,73,27524
6153,110,27527
6154,216,27528
6155,97,27534
6156,216,27537
6157,108,27541
6158,44,27558
6159,209,27563
6160,139,27564
6161,107,27566
6162,1,27576
6163,51,27577
6164,87,27588
6165,87,27589
6166,87,27590
6167,132,27592
6168,140,27600
6169,59,27607
6170,78,27616
6171,106,27623
6172,220,27625
6173,83,27636
6174,83,27643
6175,84,27650
6176,78,54926
6177,12,54927
6178,173,54928
6179,9,54931
6180,71,54933
6181,32,54934
6182,84,54935
6183,68,54937
6184,129,54939
6185,195,54950
6186,167,54954
6187,71,54955
6188,53,54956
6189,127,54957
6190,41,54958
6191,81,54961
6192,204,54963
6193,193,54967
6194,104,54968
6195,179,54973
6196,72,54974
6197,71,54978
6198,43,54981
6199,12,54985
6200,214,54986
6201,118,54987
6202,127,54989
6203,94,54995
6204,41,54997
6205,107,54998
6206,79,55001
6207,16,55002
6208,20,40734
6209,55,40736
6210,65,40737
6211,213,40740
6212,68,40747
6213,73,40750
6214,119,40751
6215,23,40754
6216,117,40756
6217,41,40757
6218,42,40762
6219,106,40763
6220,198,40774
6221,112,40784
6222,75,40791
6223,57,40794
6224,42,40804
6225,19,40808
6226,13,40810
6227,130,40812
6228,123,40822
6229,209,40824
6230,123,40825
6231,31,40830
6232,65,40831
6233,35,40833
6234,99,40834
6235,7,40843
6236,68,40845
6237,93,40850
6238,104,40852
6239,41,40854
6240,24,29856
6241,70,29861
6242,193,29862
6243,73,29863
6244,0,29864
6245,76,29876
6246,107,29879
6247,34,29891
6248,120,29892
6249,55,29893
6250,141,29904
6251,3,29912
6252,90,29929
6253,139,29930
6254,91,29944
6255,32,29973
6256,119,29978
6257,163,29979
6258,127,29984
6259,107,29993
6260,28,30019
6261,2,30028
6262,28,30035
6263,60,30040
6264,81,30041
6265,83,30042
6266,117,30047
6267,75,30065
6268,158,30075
6269,136,30082
6270,139,30090
6271,7,30096
6272,208,9051
6273,76,9059
6274,116,9062
6275,3,9067
6276,141,9070
6277,118,9077
6278,138,9082
6279,61,9087
6280,212,9091
6281,34,9092
6282,7,9099
6283,60,9100
6284,207,9109
6285,58,9117
6286,16,9133
6287,106,9148
6288,53,9176
6289,101,9182
6290,13,9190
6291,180,9192
6292,0,9196
6293,220,9201
6294,87,9210
6295,51,9215
6296,108,9225
6297,185,9241
6298,94,9246
6299,113,9252
6300,141,9253
6301,38,9257
6302,41,9258
6303,123,9262
6304,193,40418
6305,214,40433
6306,43,40435
6307,167,40437
6308,81,40447
6309,64,40448
6310,20,40449
6311,220,40451
6312,35,40455
6313,114,40458
6314,137,40459
6315,114,40473
6316,4,40485
6317,163,40489
6318,30,40495
6319,78,40501
6320,78,40503
6321,58,40504
6322,40,40507
6323,99,40509
6324,98,40514
6325,128,40524
6326,19,40533
6327,30,40553
6328,204,40567
6329,119,40575
6330,79,40602
6331,42,40610
6332,42,40615
6333,167,40616
6334,126,40618
6335,96,40628
6336,34,25976
6337,64,25978
6338,4,25996
6339,11,26009
6340,134,26022
6341,27,26023
6342,121,26031
6343,87,26037
6344,72,26040
6345,133,26043
6346,92,26046
6347,195,26047
6348,135,26063
6349,195,26068
6350,98,26077
6351,124,26086
6352,1,26087
6353,198,26089
6354,23,26102
6355,97,26110
6356,141,26113
6357,0,26122
6358,208,26125
6359,68,26129
6360,49,26135
6361,69,26138
6362,107,26145
6363,95,26149
6364,73,26153
6365,61,26159
6366,81,26160
6367,111,26166
6368,128,14799
6369,108,14812
6370,65,14828
6371,52,14842
6372,25,14858
6373,70,14860
6374,213,14866
6375,8,14881
6376,37,14908
6377,90,14931
6378,124,14958
6379,179,14965
6380,198,14976
6381,138,14980
6382,65,15009
6383,97,15014
6384,117,15017
6385,55,15032
6386,70,15034
6387,121,15039
6388,110,15050
6389,131,15062
6390,207,15071
6391,195,15080
6392,116,15092
6393,70,15103
6394,208,15141
6395,141,15142
6396,65,15169
6397,16,15179
6398,96,15216
6399,195,15220
6400,209,39153
6401,81,39160
6402,96,39168
6403,16,39171
6404,91,39172
6405,78,39180
6406,111,39192
6407,34,39205
6408,19,39207
6409,32,39208
6410,109,39210
6411,133,39213
6412,131,39214
6413,66,39222
6414,49,39231
6415,118,39240
6416,3,39246
6417,113,39248
6418,179,39255
6419,25,39256
6420,127,39264
6421,71,39266
6422,107,39270
6423,118,39275
6424,216,39278
6425,34,39281
6426,124,39282
6427,34,39283
6428,158,39284
6429,45,39285
6430,61,39291
6431,129,39294
6432,131,32159
6433,87,32167
6434,88,32181
6435,15,32188
6436,140,32201
6437,41,32203
6438,111,32206
6439,110,32216
6440,17,32217
6441,21,32219
6442,208,32223
6443,94,32226
6444,173,32228
6445,4,32235
6446,119,32238
6447,35,32239
6448,58,32244
6449,78,32246
6450,52,32249
6451,42,32250
6452,94,32254
6453,179,32260
6454,135,32263
6455,131,32267
6456,81,32268
6457,207,32269
6458,94,32272
6459,131,32273
6460,73,32276
6461,8,32280
6462,20,32287
6463,195,32290
6464,135,42976
6465,141,42981
6466,89,42989
6467,53,42991
6468,116,42992
6469,220,42997
6470,57,43002
6471,100,43009
6472,116,43026
6473,81,43027
6474,45,43031
6475,82,43032
6476,125,43033
6477,82,43036
6478,43,43049
6479,120,43053
6480,16,43057
6481,58,43060
6482,193,43061
6483,40,43064
6484,121,43065
6485,173,43072
6486,133,43080
6487,209,43084
6488,99,43086
6489,131,43096
6490,35,43099
6491,51,43102
6492,99,43113
6493,62,43139
6494,73,43140
6495,41,43143
6496,111,21798
6497,217,21821
6498,97,21865
6499,53,21866
6500,70,21867
6501,81,21872
6502,56,21888
6503,124,21890
6504,92,21894
6505,22,21965
6506,137,21974
6507,101,22010
6508,0,22025
6509,135,22038
6510,34,22070
6511,19,22075
6512,126,22081
6513,113,22085
6514,193,22088
6515,63,22090
6516,98,22111
6517,126,22113
6518,73,22138
6519,209,22144
6520,116,22153
6521,193,22159
6522,17,22172
6523,20,22186
6524,49,22189
6525,20,22212
6526,112,22221
6527,217,22234
6528,42,42402
6529,80,42407
6530,41,42409
6531,116,42418
6532,87,42421
6533,125,42427
6534,81,42436
6535,118,42447
6536,52,42459
6537,87,42460
6538,179,42478
6539,8,42479
6540,78,42480
6541,41,42481
6542,120,42483
6543,124,42486
6544,87,42487
6545,71,42494
6546,57,42509
6547,69,42513
6548,115,42519
6549,78,42524
6550,130,42526
6551,216,42556
6552,83,42559
6553,204,42563
6554,134,42566
6555,37,42571
6556,87,42574
6557,19,42590
6558,70,42592
6559,123,42601
6560,47,15710
6561,101,15874
6562,62,15888
6563,77,15944
6564,115,16062
6565,217,16169
6566,44,16221
6567,3,16417
6568,15,16785
6569,87,16862
6570,104,16886
6571,126,16910
6572,107,17080
6573,163,17142
6574,78,17301
6575,116,17305
6576,64,17319
6577,62,17328
6578,143,17529
6579,11,18047
6580,204,18170
6581,84,18174
6582,66,18301
6583,24,18679
6584,25,19267
6585,16,19293
6586,135,19602
6587,35,20824
6588,117,21273
6589,73,22165
6590,97,25167
6591,98,33744
6592,59,47761
6593,67,47762
6594,106,47764
6595,32,47765
6596,91,47773
6597,19,47777
6598,76,47781
6599,120,47789
6600,207,47791
6601,72,47795
6602,27,47798
6603,139,47802
6604,73,47807
6605,115,47814
6606,34,47815
6607,99,47816
6608,220,47824
6609,180,47825
6610,86,47826
6611,79,47827
6612,179,47828
6613,77,47831
6614,109,47832
6615,128,47833
6616,207,47835
6617,133,47837
6618,84,47839
6619,90,47845
6620,91,47846
6621,152,47848
6622,2,47850
6623,118,47860
6624,213,40479
6625,64,40491
6626,83,40499
6627,81,40516
6628,42,40522
6629,68,40527
6630,7,40530
6631,26,40535
6632,217,40539
6633,7,40541
6634,138,40573
6635,167,40582
6636,181,40588
6637,116,40590
6638,16,40598
6639,180,40603
6640,100,40604
6641,53,40617
6642,65,40624
6643,111,40625
6644,79,40627
6645,100,40646
6646,3,40674
6647,123,40677
6648,120,40682
6649,193,40700
6650,114,40707
6651,217,40716
6652,73,40721
6653,133,40722
6654,109,40744
6655,47,40759
6656,99,9009
6657,14,9012
6658,87,9025
6659,119,9030
6660,59,9031
6661,72,9034
6662,35,9038
6663,49,9039
6664,4,9042
6665,68,9048
6666,92,9053
6667,104,9054
6668,35,9061
6669,21,9066
6670,84,9075
6671,116,9081
6672,32,9084
6673,34,9088
6674,27,9112
6675,70,9122
6676,52,9125
6677,0,9131
6678,220,9135
6679,69,9138
6680,98,9142
6681,135,9143
6682,72,9154
6683,23,9155
6684,128,9161
6685,8,9178
6686,7,9179
6687,100,9222
6688,119,37487
6689,41,37519
6690,181,37522
6691,115,37533
6692,46,37537
6693,92,37546
6694,111,37559
6695,138,37592
6696,96,37613
6697,207,37615
6698,129,37637
6699,128,37640
6700,87,37644
6701,12,37652
6702,15,37703
6703,134,37722
6704,134,37728
6705,55,37733
6706,103,37746
6707,138,37818
6708,97,37832
6709,35,37841
6710,73,37879
6711,108,37882
6712,127,37911
6713,82,37961
6714,125,37973
6715,5,38019
6716,42,38030
6717,68,38034
6718,193,38045
6719,173,38054
6720,141,21718
6721,118,21725
6722,13,21726
6723,167,21727
6724,109,21733
6725,96,21744
6726,70,21756
6727,4,21758
6728,87,21776
6729,106,21781
6730,124,21792
6731,51,21819
6732,213,21822
6733,140,21826
6734,181,21834
6735,119,21835
6736,63,21843
6737,35,21854
6738,33,21858
6739,209,21875
6740,179,21901
6741,123,21908
6742,106,21919
6743,8,21927
6744,68,21930
6745,65,21954
6746,40,21958
6747,106,21960
6748,68,21967
6749,135,21985
6750,17,21993
6751,127,21996
6752,181,47410
6753,133,47412
6754,141,47413
6755,16,47415
6756,73,47421
6757,11,47422
6758,16,47428
6759,65,47440
6760,92,47441
6761,214,47442
6762,119,47446
6763,7,47450
6764,133,47451
6765,150,47460
6766,216,47466
6767,55,47467
6768,64,47475
6769,167,47477
6770,35,47478
6771,12,47480
6772,124,47481
6773,87,47482
6774,78,47491
6775,111,47499
6776,114,47501
6777,204,47503
6778,134,47504
6779,68,47505
6780,49,47510
6781,193,47519
6782,220,47520
6783,103,47526
6784,123,30974
6785,123,30996
6786,54,31087
6787,32,31347
6788,34,31813
6789,173,31949
6790,4,31974
6791,78,32063
6792,113,32277
6793,36,32298
6794,4,32310
6795,47,32314
6796,70,32434
6797,34,32483
6798,46,32500
6799,98,32516
6800,114,32563
6801,47,32624
6802,67,32670
6803,99,32716
6804,131,32754
6805,20,32755
6806,87,32790
6807,0,32800
6808,137,32810
6809,70,32835
6810,53,32836
6811,60,32847
6812,44,32869
6813,35,32874
6814,17,32889
6815,173,32933
6816,65,36339
6817,111,36350
6818,106,36355
6819,127,36410
6820,76,36411
6821,111,36421
6822,208,36431
6823,19,36443
6824,78,36448
6825,64,36451
6826,90,36466
6827,207,36475
6828,204,36485
6829,131,36488
6830,134,36495
6831,108,36521
6832,173,36546
6833,131,36597
6834,84,36616
6835,70,36617
6836,193,36620
6837,9,36628
6838,217,36634
6839,6,36642
6840,180,36654
6841,3,36712
6842,27,36735
6843,24,36754
6844,88,36758
6845,217,36762
6846,27,36773
6847,204,36776
6848,94,34757
6849,204,34775
6850,134,34782
6851,85,34801
6852,207,34802
6853,68,34806
6854,193,34819
6855,132,34824
6856,28,34831
6857,12,34832
6858,32,34839
6859,78,34851
6860,108,34853
6861,220,34859
6862,135,34866
6863,139,34874
6864,141,34899
6865,0,34907
6866,101,34913
6867,24,34922
6868,6,34924
6869,27,34927
6870,92,34937
6871,20,34943
6872,17,34948
6873,138,34968
6874,51,34978
6875,136,34979
6876,108,34984
6877,217,34987
6878,42,34991
6879,53,34993
6880,34,17400
6881,131,17433
6882,79,17585
6883,94,17605
6884,70,17608
6885,94,17648
6886,106,17660
6887,29,17690
6888,209,17718
6889,116,17731
6890,133,17776
6891,66,17822
6892,91,17842
6893,27,17850
6894,70,17864
6895,64,17941
6896,140,17954
6897,13,17956
6898,6,18022
6899,107,18116
6900,103,18179
6901,33,18203
6902,103,18284
6903,90,18399
6904,124,18405
6905,134,18563
6906,75,18585
6907,119,18638
6908,123,18645
6909,82,18650
6910,121,18705
6911,136,18784
6912,70,50629
6913,94,50630
6914,124,50632
6915,12,50635
6916,28,50636
6917,118,50637
6918,126,50638
6919,137,50639
6920,84,50640
6921,116,50641
6922,58,50645
6923,24,50648
6924,21,50652
6925,76,50654
6926,19,50658
6927,87,50660
6928,17,50665
6929,141,50667
6930,42,50670
6931,13,50672
6932,193,50673
6933,128,50674
6934,22,50677
6935,116,50679
6936,58,50680
6937,113,50681
6938,70,50682
6939,216,50686
6940,108,50687
6941,33,50690
6942,9,50691
6943,0,50693
6944,39,266
6945,35,270
6946,100,282
6947,38,285
6948,180,298
6949,214,312
6950,139,397
6951,115,405
6952,12,414
6953,71,443
6954,35,473
6955,4,490
6956,220,503
6957,120,515
6958,98,516
6959,60,527
6960,86,543
6961,137,581
6962,140,602
6963,14,605
6964,204,683
6965,125,684
6966,26,728
6967,127,764
6968,6,768
6969,34,773
6970,0,784
6971,3,824
6972,7,840
6973,61,856
6974,46,859
6975,126,864
6976,19,51954
6977,108,51958
6978,66,51959
6979,106,51960
6980,131,51966
6981,111,51974
6982,12,51978
6983,49,51979
6984,134,51986
6985,117,51987
6986,65,51990
6987,43,51996
6988,91,52004
6989,33,52005
6990,55,52007
6991,217,52011
6992,23,52014
6993,111,52016
6994,44,52019
6995,216,52020
6996,185,52021
6997,180,52023
6998,32,52025
6999,71,52029
7000,195,52032
7001,129,52034
7002,193,52038
7003,128,52041
7004,75,52043
7005,33,52045
7006,212,52046
7007,138,52049
7008,17,46540
7009,29,46545
7010,128,46546
7011,43,46547
7012,47,46549
7013,128,46550
7014,43,46553
7015,81,46555
7016,163,46562
7017,6,46563
7018,118,46564
7019,155,46567
7020,73,46571
7021,76,46572
7022,113,46575
7023,187,46577
7024,113,46578
7025,133,46581
7026,128,46582
7027,107,46583
7028,208,46584
7029,41,46585
7030,70,46591
7031,45,46593
7032,209,46597
7033,104,46603
7034,24,46604
7035,133,46605
7036,112,46608
7037,69,46612
7038,35,46622
7039,208,46624
7040,69,42627
7041,19,42637
7042,73,42643
7043,91,42654
7044,72,42659
7045,133,42663
7046,3,42667
7047,42,42672
7048,13,42673
7049,127,42676
7050,97,42678
7051,28,42680
7052,53,42688
7053,193,42696
7054,45,42698
7055,13,42703
7056,31,42711
7057,207,42714
7058,204,42723
7059,58,42730
7060,185,42731
7061,138,42733
7062,73,42739
7063,55,42745
7064,217,42751
7065,179,42759
7066,72,42762
7067,33,42768
7068,213,42772
7069,1,42773
7070,77,42775
7071,62,42776
7072,20,10088
7073,204,10118
7074,44,10131
7075,143,10143
7076,204,10144
7077,8,10162
7078,216,10177
7079,52,10184
7080,81,10206
7081,173,10214
7082,76,10234
7083,12,10248
7084,7,10251
7085,106,10278
7086,180,10298
7087,76,10307
7088,97,10318
7089,12,10325
7090,86,10376
7091,26,10380
7092,55,10411
7093,86,10457
7094,19,10476
7095,30,10509
7096,120,10542
7097,73,10573
7098,64,10574
7099,193,10603
7100,113,10606
7101,79,10627
7102,138,10660
7103,59,10701
7104,139,3583
7105,9,3585
7106,216,3614
7107,51,3617
7108,140,3631
7109,79,3639
7110,71,3655
7111,84,3670
7112,107,3683
7113,52,3689
7114,87,3709
7115,51,3726
7116,13,3748
7117,78,3751
7118,41,3760
7119,3,3793
7120,173,3797
7121,124,3826
7122,46,3833
7123,69,3846
7124,214,3867
7125,173,3868
7126,110,3887
7127,38,3895
7128,204,3906
7129,108,3924
7130,104,3938
7131,66,3943
7132,12,3986
7133,0,3990
7134,94,4002
7135,208,4020
7136,120,4246
7137,4,4252
7138,76,4288
7139,99,4302
7140,52,4317
7141,52,4322
7142,21,4346
7143,118,4366
7144,70,4394
7145,217,4408
7146,38,4418
7147,113,4433
7148,109,4444
7149,98,4481
7150,137,4496
7151,185,4531
7152,81,4574
7153,72,4580
7154,14,4586
7155,108,4628
7156,65,4633
7157,51,4639
7158,92,4648
7159,198,4661
7160,116,4662
7161,118,4699
7162,58,4701
7163,59,4702
7164,55,4707
7165,21,4710
7166,21,4729
7167,217,4782
7168,204,36575
7169,58,36589
7170,96,36598
7171,11,36600
7172,12,36645
7173,128,36651
7174,99,36653
7175,39,36668
7176,76,36669
7177,133,36679
7178,29,36687
7179,35,36693
7180,214,36698
7181,35,36707
7182,86,36737
7183,52,36753
7184,141,36767
7185,54,36775
7186,70,36791
7187,65,36793
7188,116,36794
7189,35,36795
7190,108,36803
7191,82,36814
7192,116,36831
7193,202,36839
7194,99,36848
7195,118,36875
7196,34,36890
7197,59,36903
7198,43,36906
7199,138,36923
7200,99,49902
7201,204,49937
7202,212,49962
7203,107,50010
7204,58,50012
7205,73,50042
7206,108,50051
7207,0,50064
7208,67,50076
7209,87,50112
7210,185,50115
7211,48,50123
7212,41,50125
7213,72,50163
7214,58,50189
7215,60,50240
7216,98,50250
7217,125,50270
7218,217,50283
7219,70,50300
7220,98,50327
7221,28,50348
7222,214,50349
7223,123,50396
7224,110,50406
7225,11,50416
7226,193,50443
7227,132,50465
7228,130,50477
7229,116,50508
7230,106,50550
7231,109,50577
7232,216,37075
7233,137,37085
7234,6,37086
7235,167,37089
7236,24,37094
7237,62,37095
7238,123,37098
7239,10,37108
7240,138,37135
7241,20,37153
7242,87,37195
7243,220,37206
7244,76,37212
7245,40,37246
7246,71,37248
7247,97,37261
7248,67,37264
7249,114,37267
7250,76,37274
7251,26,37276
7252,86,37278
7253,207,37294
7254,126,37302
7255,163,37349
7256,60,37351
7257,217,37355
7258,70,37365
7259,216,37383
7260,13,37394
7261,42,37427
7262,143,37441
7263,20,37467
7264,50,50457
7265,97,50458
7266,2,50461
7267,12,50463
7268,81,50469
7269,51,50471
7270,195,50474
7271,19,50478
7272,41,50481
7273,213,50483
7274,179,50493
7275,23,50498
7276,19,50500
7277,4,50501
7278,136,50502
7279,13,50505
7280,209,50507
7281,35,50509
7282,86,50512
7283,66,50513
7284,13,50515
7285,58,50521
7286,87,50523
7287,119,50524
7288,131,50525
7289,11,50527
7290,81,50529
7291,11,50530
7292,131,50541
7293,6,50543
7294,133,50547
7295,198,50548
7296,34,38760
7297,99,38767
7298,23,38771
7299,135,38773
7300,124,38781
7301,155,38784
7302,6,38785
7303,24,38790
7304,7,38793
7305,209,38798
7306,77,38799
7307,139,38803
7308,37,38815
7309,70,38821
7310,3,38823
7311,127,38824
7312,27,38839
7313,53,38840
7314,76,38844
7315,4,38853
7316,93,38855
7317,212,38861
7318,65,38867
7319,53,38878
7320,43,38879
7321,80,38889
7322,115,38892
7323,17,38899
7324,49,38901
7325,71,38903
7326,132,38909
7327,94,38911
7328,49,42293
7329,141,42304
7330,76,42305
7331,40,42307
7332,34,42312
7333,61,42317
7334,65,42321
7335,41,42322
7336,31,42324
7337,70,42325
7338,217,42333
7339,97,42347
7340,217,42348
7341,132,42353
7342,16,42354
7343,124,42356
7344,133,42358
7345,137,42359
7346,124,42363
7347,84,42367
7348,8,42376
7349,35,42378
7350,62,42380
7351,84,42382
7352,19,42383
7353,140,42384
7354,98,42385
7355,52,42387
7356,20,42392
7357,64,42394
7358,84,42419
7359,78,42420
7360,119,9752
7361,13,9794
7362,180,9914
7363,49,9970
7364,30,10090
7365,88,10150
7366,178,10164
7367,119,10213
7368,6,10274
7369,32,10321
7370,208,10340
7371,27,10369
7372,99,10668
7373,9,10693
7374,70,10795
7375,114,10815
7376,82,10844
7377,185,10863
7378,87,10876
7379,9,10933
7380,45,11046
7381,211,11089
7382,139,11165
7383,44,11218
7384,113,11680
7385,8,11771
7386,41,11914
7387,40,11949
7388,58,11961
7389,3,11969
7390,217,11992
7391,214,12086
7392,109,18516
7393,76,18693
7394,65,21804
7395,135,22770
7396,87,23631
7397,11,34459
7398,46,13
7399,28,86
7400,90,93
7401,51,108
7402,73,117
7403,8,150
7404,33,153
7405,204,210
7406,107,297
7407,204,331
7408,80,337
7409,8,341
7410,107,342
7411,19,419
7412,131,425
7413,209,436
7414,57,450
7415,49,495
7416,85,538
7417,12,558
7418,8,594
7419,209,595
7420,213,611
7421,6,619
7422,94,632
7423,6,649
7424,209,39498
7425,104,39508
7426,31,39509
7427,83,39518
7428,20,39519
7429,158,39534
7430,134,39535
7431,208,39540
7432,129,39545
7433,34,39550
7434,125,39553
7435,91,39554
7436,62,39557
7437,78,39559
7438,114,39560
7439,42,39567
7440,34,39572
7441,198,39573
7442,86,39589
7443,3,39594
7444,179,39597
7445,124,39599
7446,181,39600
7447,72,39601
7448,204,39607
7449,208,39610
7450,0,39616
7451,11,39618
7452,30,39620
7453,22,39627
7454,118,39628
7455,128,39631
7456,12,50774
7457,1,50777
7458,40,50779
7459,40,50780
7460,84,50781
7461,128,50787
7462,3,50789
7463,7,50790
7464,208,50798
7465,97,50804
7466,62,50805
7467,135,50806
7468,73,50808
7469,126,50812
7470,214,50813
7471,73,50816
7472,64,50818
7473,26,50820
7474,173,50821
7475,163,50824
7476,163,50826
7477,73,50827
7478,100,50835
7479,70,50836
7480,98,50837
7481,58,50839
7482,132,50840
7483,217,50845
7484,141,50846
7485,27,50848
7486,116,50853
7487,204,50854
7488,4,14499
7489,20,14520
7490,26,14549
7491,204,14588
7492,38,14626
7493,173,14654
7494,99,14659
7495,106,14770
7496,8,14791
7497,57,14827
7498,84,14837
7499,20,14949
7500,180,15178
7501,209,15210
7502,211,15225
7503,198,15255
7504,213,15289
7505,198,15348
7506,128,15365
7507,34,15477
7508,34,15499
7509,92,15515
7510,109,15619
7511,61,15628
7512,129,15632
7513,93,15664
7514,48,15681
7515,114,15691
7516,4,15711
7517,81,15780
7518,79,16145
7519,57,16175
7520,104,2571
7521,76,2580
7522,216,2623
7523,116,2626
7524,12,2628
7525,101,2640
7526,58,2668
7527,214,2672
7528,220,2679
7529,204,2696
7530,38,2697
7531,138,2704
7532,44,2727
7533,13,2764
7534,53,2801
7535,77,2823
7536,0,2858
7537,34,2875
7538,36,2880
7539,134,2885
7540,49,2918
7541,52,2937
7542,207,2941
7543,84,2945
7544,60,2968
7545,15,3003
7546,44,3013
7547,107,3020
7548,68,3025
7549,24,3050
7550,220,3063
7551,72,3067
7552,108,21989
7553,70,21990
7554,202,21991
7555,20,22000
7556,94,22011
7557,12,22026
7558,220,22031
7559,20,22032
7560,103,22059
7561,7,22060
7562,217,22066
7563,193,22067
7564,106,22087
7565,211,22092
7566,34,22122
7567,198,22132
7568,35,22134
7569,64,22139
7570,78,22163
7571,40,22177
7572,46,22184
7573,46,22197
7574,35,22207
7575,35,22209
7576,140,22224
7577,70,22235
7578,65,22248
7579,116,22249
7580,121,22253
7581,35,22255
7582,37,22262
7583,70,22265
7584,108,19827
7585,70,19838
7586,47,19864
7587,127,19866
7588,104,19876
7589,73,19911
7590,16,19917
7591,140,19920
7592,204,19926
7593,139,19977
7594,116,19985
7595,121,19994
7596,158,20026
7597,135,20080
7598,64,20081
7599,34,20108
7600,129,20113
7601,173,20143
7602,120,20197
7603,129,20222
7604,124,20259
7605,121,20304
7606,17,20308
7607,57,20317
7608,114,20321
7609,73,20326
7610,82,20444
7611,107,20503
7612,20,20533
7613,73,20550
7614,60,20558
7615,0,20585
7616,135,16740
7617,64,16750
7618,36,16753
7619,57,16771
7620,68,16776
7621,17,16797
7622,110,16819
7623,104,16861
7624,93,16871
7625,58,16884
7626,109,16933
7627,13,16944
7628,13,16952
7629,71,16986
7630,198,17009
7631,106,17017
7632,71,17030
7633,139,17037
7634,116,17055
7635,100,17077
7636,19,17114
7637,107,17124
7638,0,17134
7639,95,17154
7640,48,17218
7641,9,17257
7642,98,17265
7643,209,17295
7644,78,17308
7645,94,17343
7646,1,17404
7647,20,17431
7648,111,13041
7649,120,13042
7650,16,13046
7651,195,13055
7652,31,13072
7653,4,13086
7654,118,13099
7655,112,13127
7656,1,13139
7657,46,13145
7658,198,13160
7659,70,13183
7660,141,13186
7661,220,13212
7662,216,13219
7663,97,13267
7664,66,13273
7665,47,13292
7666,107,13296
7667,0,13305
7668,96,13310
7669,125,13319
7670,60,13320
7671,40,13330
7672,87,13335
7673,45,13349
7674,7,13353
7675,108,13357
7676,58,13420
7677,88,13421
7678,131,13434
7679,71,13435
7680,81,47498
7681,0,47500
7682,113,47506
7683,76,47513
7684,16,47516
7685,131,47518
7686,35,47530
7687,61,47532
7688,19,47536
7689,88,47538
7690,179,47539
7691,179,47547
7692,24,47555
7693,21,47558
7694,202,47563
7695,204,47575
7696,204,47579
7697,97,47582
7698,42,47585
7699,65,47586
7700,35,47589
7701,127,47592
7702,64,47593
7703,127,47600
7704,87,47602
7705,97,47606
7706,65,47621
7707,135,47622
7708,58,47624
7709,62,47627
7710,143,47636
7711,55,47638
7712,135,1963
7713,137,2170
7714,82,2208
7715,20,2209
7716,35,2370
7717,8,2608
7718,34,2705
7719,68,2815
7720,24,2863
7721,35,2871
7722,31,2874
7723,111,2969
7724,3,3016
7725,81,3080
7726,35,3166
7727,167,3175
7728,81,3219
7729,23,3263
7730,84,3291
7731,131,3408
7732,3,3477
7733,91,3546
7734,137,3591
7735,207,3595
7736,63,3621
7737,118,3672
7738,173,3685
7739,187,3690
7740,99,3818
7741,128,3869
7742,35,3873
7743,209,3907
7744,66,36357
7745,120,36363
7746,7,36364
7747,119,36365
7748,132,36366
7749,41,36369
7750,134,36371
7751,70,36373
7752,43,36375
7753,65,36377
7754,140,36380
7755,141,36389
7756,12,36391
7757,58,36396
7758,117,36400
7759,212,36402
7760,167,36413
7761,47,36418
7762,198,36432
7763,64,36433
7764,76,36438
7765,42,36446
7766,204,36447
7767,94,36450
7768,0,36460
7769,104,36464
7770,91,36469
7771,137,36484
7772,137,36504
7773,133,36510
7774,113,36514
7775,71,36515
7776,70,56572
7777,65,56575
7778,88,56576
7779,100,56579
7780,211,56580
7781,31,56582
7782,109,56583
7783,180,56585
7784,40,56586
7785,3,56587
7786,41,56589
7787,35,56592
7788,58,56593
7789,113,56594
7790,173,56596
7791,96,56597
7792,28,56599
7793,12,56600
7794,73,56601
7795,116,56605
7796,126,56606
7797,4,56608
7798,104,56611
7799,138,56614
7800,5,56616
7801,198,56617
7802,82,56619
7803,63,56620
7804,193,56622
7805,64,56624
7806,42,56627
7807,0,56628
7808,140,36913
7809,217,36914
7810,87,36927
7811,72,36934
7812,94,36936
7813,207,36937
7814,65,36946
7815,49,36953
7816,139,36992
7817,217,37011
7818,4,37016
7819,111,37027
7820,52,37033
7821,86,37044
7822,109,37050
7823,217,37059
7824,23,37070
7825,51,37081
7826,88,37105
7827,21,37112
7828,30,37149
7829,24,37150
7830,39,37163
7831,53,37168
7832,77,37173
7833,208,37181
7834,8,37192
7835,59,37196
7836,12,37216
7837,214,37229
7838,91,37239
7839,107,37249
7840,72,56393
7841,193,56397
7842,71,56398
7843,63,56399
7844,53,56401
7845,202,56403
7846,84,56405
7847,119,56406
7848,207,56407
7849,87,56408
7850,143,56409
7851,16,56411
7852,87,56414
7853,96,56415
7854,75,56417
7855,85,56419
7856,19,56420
7857,0,56421
7858,217,56422
7859,92,56424
7860,70,56425
7861,32,56426
7862,131,56430
7863,208,56433
7864,125,56434
7865,180,56435
7866,34,56436
7867,17,56437
7868,76,56438
7869,84,56439
7870,125,56442
7871,6,56445
7872,93,10039
7873,12,10046
7874,68,10059
7875,3,10066
7876,100,10067
7877,108,10094
7878,193,10105
7879,195,10107
7880,97,10115
7881,115,10120
7882,112,10125
7883,49,10155
7884,140,10191
7885,1,10220
7886,112,10222
7887,0,10224
7888,115,10227
7889,97,10253
7890,68,10271
7891,207,10317
7892,181,10331
7893,121,10345
7894,108,10351
7895,76,10370
7896,91,10375
7897,198,10379
7898,111,10399
7899,34,10413
7900,88,10422
7901,70,10461
7902,217,10463
7903,127,10478
7904,129,54669
7905,72,54704
7906,70,54743
7907,108,54768
7908,127,54782
7909,23,54790
7910,55,54801
7911,59,54804
7912,12,54830
7913,139,54837
7914,25,54844
7915,92,54845
7916,33,54932
7917,208,54936
7918,58,54945
7919,19,54977
7920,120,54993
7921,217,55005
7922,87,55104
7923,86,55105
7924,135,55106
7925,125,55112
7926,107,55124
7927,92,55126
7928,17,55153
7929,52,55165
7930,77,55192
7931,40,55198
7932,193,55212
7933,137,55226
7934,66,55232
7935,124,55246
7936,195,7392
7937,20,7410
7938,49,7411
7939,27,7438
7940,212,7447
7941,13,7471
7942,44,7479
7943,103,7484
7944,198,7487
7945,21,7514
7946,26,7529
7947,23,7539
7948,213,7543
7949,70,7569
7950,107,7586
7951,96,7600
7952,140,7635
7953,3,7665
7954,208,7696
7955,76,7804
7956,62,7831
7957,51,7875
7958,135,7891
7959,53,7908
7960,65,7947
7961,38,7952
7962,53,7994
7963,8,8012
7964,124,8032
7965,100,8063
7966,87,8106
7967,216,8121
7968,39,41196
7969,179,41206
7970,136,41207
7971,35,41213
7972,139,41221
7973,19,41227
7974,117,41231
7975,16,41232
7976,64,41233
7977,216,41242
7978,86,41257
7979,137,41261
7980,198,41264
7981,134,41271
7982,217,41277
7983,163,41288
7984,78,41292
7985,44,41293
7986,127,41299
7987,94,41300
7988,127,41303
7989,32,41305
7990,87,41316
7991,204,41319
7992,130,41320
7993,98,41326
7994,204,41330
7995,98,41332
7996,77,41337
7997,77,41338
7998,58,41340
7999,163,41344
8000,21,5051
8001,135,5054
8002,20,5061
8003,49,5075
8004,35,5088
8005,77,5101
8006,204,5115
8007,212,5123
8008,47,5130
8009,8,5177
8010,92,5240
8011,207,5241
8012,76,5264
8013,140,5283
8014,35,5287
8015,81,5293
8016,220,5303
8017,213,5331
8018,60,5428
8019,0,5447
8020,193,5453
8021,139,5455
8022,138,5480
8023,68,5485
8024,131,5488
8025,193,5496
8026,126,5567
8027,106,5585
8028,49,5610
8029,108,5616
8030,60,5670
8031,40,5685
8032,34,5959
8033,97,6011
8034,131,6040
8035,70,6122
8036,209,6160
8037,137,6176
8038,81,6209
8039,134,6219
8040,109,6233
8041,87,6240
8042,31,6266
8043,138,6267
8044,216,6293
8045,73,6311
8046,119,6349
8047,43,6367
8048,100,6380
8049,49,6387
8050,75,6478
8051,20,6523
8052,114,6535
8053,95,6592
8054,94,6595
8055,138,6611
8056,58,6657
8057,82,6732
8058,113,6735
8059,14,6755
8060,69,6801
8061,123,6829
8062,0,6848
8063,124,6865
8064,19,31920
8065,84,31936
8066,67,31947
8067,19,31953
8068,209,31954
8069,75,31960
8070,195,31965
8071,19,31978
8072,92,31980
8073,133,31983
8074,118,31984
8075,35,31985
8076,64,32000
8077,42,32011
8078,6,32018
8079,59,32019
8080,130,32022
8081,7,32023
8082,64,32026
8083,134,32034
8084,63,32043
8085,131,32053
8086,79,32061
8087,70,32066
8088,19,32080
8089,208,32088
8090,51,32089
8091,115,32092
8092,34,32093
8093,204,32098
8094,35,32103
8095,37,32115
8096,140,39305
8097,32,39307
8098,49,39308
8099,120,39325
8100,107,39326
8101,4,39341
8102,68,39344
8103,51,39349
8104,2,39350
8105,43,39353
8106,128,39358
8107,71,39364
8108,97,39368
8109,125,39370
8110,36,39374
8111,40,39379
8112,37,39381
8113,52,39383
8114,107,39385
8115,101,39395
8116,29,39396
8117,137,39405
8118,220,39408
8119,87,39417
8120,8,39421
8121,195,39424
8122,124,39426
8123,213,39428
8124,128,39431
8125,3,39433
8126,35,39435
8127,52,39442
8128,42,56736
8129,58,56745
8130,19,56748
8131,73,56750
8132,127,56752
8133,179,56754
8134,181,56755
8135,46,56756
8136,133,56757
8137,79,56758
8138,119,56759
8139,7,56763
8140,213,56764
8141,193,56768
8142,26,56772
8143,104,56774
8144,96,56776
8145,84,56780
8146,78,56782
8147,128,56788
8148,35,56792
8149,136,56793
8150,40,56794
8151,116,56795
8152,84,56797
8153,54,56799
8154,108,56800
8155,19,56801
8156,78,56803
8157,21,56804
8158,46,56805
8159,0,56807
8160,216,27545
8161,42,27852
8162,127,28435
8163,19,29159
8164,124,29173
8165,124,29431
8166,136,29473
8167,140,29543
8168,33,29555
8169,141,29586
8170,179,29619
8171,72,29910
8172,31,29936
8173,111,29980
8174,41,30291
8175,138,30858
8176,17,32065
8177,204,32404
8178,41,32697
8179,108,32711
8180,26,32822
8181,76,32850
8182,185,32894
8183,128,32937
8184,81,32953
8185,41,33000
8186,51,33069
8187,2,33110
8188,88,33141
8189,92,33167
8190,179,33247
8191,128,33277
8192,127,58796
8193,17,58802
8194,138,58804
8195,83,58808
8196,123,58810
8197,207,58812
8198,6,58815
8199,135,58819
8200,55,58820
8201,46,58824
8202,47,58826
8203,52,58835
8204,207,58836
8205,20,58837
8206,20,58839
8207,78,58840
8208,61,58842
8209,12,58846
8210,217,58847
8211,12,58848
8212,207,58854
8213,117,58856
8214,70,58864
8215,118,58872
8216,195,58878
8217,12,58879
8218,29,58882
8219,104,58884
8220,79,58887
8221,51,58891
8222,5,58892
8223,141,58894
8224,55,2507
8225,78,2567
8226,7,2574
8227,35,2576
8228,213,2589
8229,207,2644
8230,4,2670
8231,17,2674
8232,217,2746
8233,47,2805
8234,140,2819
8235,100,2845
8236,135,2856
8237,126,2857
8238,208,2913
8239,101,2920
8240,61,2949
8241,0,2974
8242,78,2985
8243,4,3004
8244,23,3022
8245,107,3027
8246,61,3028
8247,4,3038
8248,23,3083
8249,93,3088
8250,135,3113
8251,217,3305
8252,68,3324
8253,204,3388
8254,53,3535
8255,81,3701
8256,91,41501
8257,81,41502
8258,213,41518
8259,1,41525
8260,173,41529
8261,49,41531
8262,0,41532
8263,106,41534
8264,31,41542
8265,34,41548
8266,58,41569
8267,87,41570
8268,84,41571
8269,113,41578
8270,19,41581
8271,108,41583
8272,81,41587
8273,75,41590
8274,73,41595
8275,77,41599
8276,26,41603
8277,193,41606
8278,71,41615
8279,23,41617
8280,47,41619
8281,61,41624
8282,212,41628
8283,120,41636
8284,213,41640
8285,53,41644
8286,58,41645
8287,62,41649
8288,35,12945
8289,104,12956
8290,64,12963
8291,81,12972
8292,195,12987
8293,99,13008
8294,124,13011
8295,198,13019
8296,136,13039
8297,106,13050
8298,71,13054
8299,108,13056
8300,179,13060
8301,20,13081
8302,136,13109
8303,88,13111
8304,43,13126
8305,77,13132
8306,96,13138
8307,173,13141
8308,214,13144
8309,208,13154
8310,59,13155
8311,20,13157
8312,135,13159
8313,17,13174
8314,195,13185
8315,106,13189
8316,37,13193
8317,87,13220
8318,193,13233
8319,48,13238
8320,204,32300
8321,140,32382
8322,16,32556
8323,114,32571
8324,81,32581
8325,32,32607
8326,30,32616
8327,114,32618
8328,124,32666
8329,70,32692
8330,127,32729
8331,3,32743
8332,64,32751
8333,20,32758
8334,35,32793
8335,128,32799
8336,87,32812
8337,73,32821
8338,81,32828
8339,76,32845
8340,24,32846
8341,81,32853
8342,16,32896
8343,43,32901
8344,13,32922
8345,104,32927
8346,100,32944
8347,91,32968
8348,138,32971
8349,98,32988
8350,70,32997
8351,94,33047
8352,131,49553
8353,124,49561
8354,97,49562
8355,117,49563
8356,63,49566
8357,220,49568
8358,92,49571
8359,11,49583
8360,61,49592
8361,204,49593
8362,217,49599
8363,19,49603
8364,207,49604
8365,6,49609
8366,97,49612
8367,60,49617
8368,26,49619
8369,56,49623
8370,131,49631
8371,20,49633
8372,179,49635
8373,83,49637
8374,41,49644
8375,21,49645
8376,73,49646
8377,70,49651
8378,34,49654
8379,60,49656
8380,127,49657
8381,34,49660
8382,92,49665
8383,109,49666
8384,78,1435
8385,127,1439
8386,33,1470
8387,140,1482
8388,90,1493
8389,124,1507
8390,99,1509
8391,123,1540
8392,135,1544
8393,31,1586
8394,173,1588
8395,35,1618
8396,43,1634
8397,214,1684
8398,99,1706
8399,2,1714
8400,8,1732
8401,70,1752
8402,202,1797
8403,78,1811
8404,12,1814
8405,23,1824
8406,113,1837
8407,88,1855
8408,19,1867
8409,82,1868
8410,214,1886
8411,97,1896
8412,40,1912
8413,58,1950
8414,51,1978
8415,193,1988
8416,217,24351
8417,41,24357
8418,128,24369
8419,195,24373
8420,43,24389
8421,120,24392
8422,136,24406
8423,6,24416
8424,92,24418
8425,58,24454
8426,85,24458
8427,127,24464
8428,91,24478
8429,179,24492
8430,81,24525
8431,35,24540
8432,139,24544
8433,193,24549
8434,137,24569
8435,52,24577
8436,45,24612
8437,112,24616
8438,130,24655
8439,64,24658
8440,110,24676
8441,217,24686
8442,47,24694
8443,84,24725
8444,220,24730
8445,208,24731
8446,99,24738
8447,19,24771
8448,73,177
8449,103,205
8450,34,226
8451,41,235
8452,13,335
8453,0,347
8454,53,354
8455,4,421
8456,106,496
8457,195,542
8458,8,735
8459,85,742
8460,139,804
8461,4,969
8462,135,988
8463,70,1024
8464,59,1033
8465,220,1036
8466,35,1080
8467,76,1098
8468,202,1099
8469,167,1108
8470,71,1116
8471,7,1128
8472,78,1155
8473,212,1163
8474,173,1164
8475,118,1176
8476,64,1203
8477,81,1261
8478,62,1330
8479,16,1350
8480,19,12770
8481,132,12798
8482,204,12802
8483,131,12863
8484,125,12894
8485,113,12933
8486,41,12947
8487,47,12978
8488,13,12980
8489,114,12986
8490,180,12993
8491,139,12996
8492,101,12997
8493,97,13012
8494,123,13023
8495,12,13047
8496,118,13068
8497,111,13078
8498,208,13087
8499,21,13107
8500,133,13110
8501,76,13152
8502,216,13166
8503,125,13171
8504,17,13191
8505,106,13194
8506,129,13223
8507,14,13236
8508,4,13237
8509,185,13252
8510,34,13262
8511,83,13265
8512,213,24148
8513,81,24149
8514,52,24163
8515,193,24164
8516,1,24173
8517,45,24183
8518,135,24194
8519,207,24195
8520,155,24197
8521,0,24203
8522,117,24207
8523,24,24215
8524,128,24222
8525,141,24227
8526,40,24232
8527,35,24235
8528,134,24240
8529,56,24245
8530,54,24259
8531,107,24264
8532,131,24268
8533,217,24269
8534,79,24281
8535,12,24285
8536,211,24292
8537,141,24297
8538,134,24300
8539,98,24301
8540,70,24303
8541,57,24305
8542,212,24309
8543,21,24314
8544,138,55444
8545,37,55446
8546,19,55451
8547,9,55453
8548,179,55454
8549,27,55455
8550,91,55458
8551,118,55459
8552,116,55461
8553,135,55463
8554,217,55470
