,partition,vertex
0,49,1145
1,2,1161
2,100,1298
3,0,1359
4,112,1381
5,34,1405
6,34,1445
7,17,1461
8,8,1483
9,108,1543
10,12,1551
11,90,1554
12,119,1557
13,4,1560
14,125,1573
15,131,1587
16,204,1596
17,94,1622
18,35,1636
19,7,1668
20,79,1687
21,35,1748
22,123,1762
23,214,1791
24,13,1817
25,87,1849
26,137,1884
27,4,1899
28,130,1917
29,83,1933
30,217,1945
31,220,1948
32,84,51866
33,24,51868
34,91,51877
35,87,51880
36,220,51883
37,220,51884
38,137,51886
39,98,51889
40,60,51890
41,120,51893
42,92,51897
43,134,51898
44,212,51911
45,23,51912
46,42,51913
47,73,51917
48,4,51918
49,11,51922
50,79,51926
51,45,51930
52,29,51931
53,97,51932
54,41,51934
55,132,51936
56,75,51941
57,18,51942
58,70,51948
59,70,51949
60,41,51950
61,127,51951
62,35,51952
63,65,51953
64,35,18946
65,52,18947
66,130,18953
67,49,18954
68,101,18959
69,118,18973
70,185,18975
71,117,18983
72,61,18994
73,185,19000
74,133,19007
75,118,19010
76,138,19011
77,52,19023
78,111,19027
79,16,19036
80,213,19038
81,193,19044
82,98,19048
83,121,19066
84,127,19083
85,217,19098
86,79,19105
87,135,19106
88,127,19107
89,45,19110
90,62,19120
91,70,19122
92,94,19137
93,108,19138
94,204,19141
95,120,19170
96,204,52706
97,119,52827
98,86,53183
99,45,53268
100,163,53474
101,133,53521
102,107,53630
103,193,53720
104,52,53944
105,4,53953
106,38,54009
107,139,54096
108,30,54354
109,155,54356
110,119,54742
111,92,54888
112,134,54962
113,57,55485
114,163,55582
115,31,55593
116,193,55609
117,79,55639
118,17,56072
119,195,56966
120,13,69
121,35,292
122,69,360
123,14,374
124,55,507
125,35,525
126,94,614
127,80,655
128,57,51670
129,181,51672
130,131,51673
131,91,51675
132,123,51676
133,180,51677
134,131,51680
135,77,51683
136,73,51687
137,99,51691
138,58,51692
139,216,51695
140,71,51697
141,65,51702
142,33,51703
143,193,51704
144,204,51713
145,53,51714
146,108,51716
147,62,51719
148,92,51722
149,40,51724
150,64,51725
151,198,51733
152,70,51735
153,30,51739
154,36,51740
155,58,51746
156,65,51747
157,84,51753
158,217,51757
159,3,51760
160,173,37516
161,99,37523
162,19,37527
163,117,37531
164,61,37538
165,108,37541
166,20,37545
167,64,37549
168,35,37561
169,9,37568
170,4,37576
171,13,37578
172,118,37581
173,104,37593
174,98,37595
175,76,37600
176,127,37601
177,211,37622
178,86,37634
179,96,37639
180,98,37642
181,30,37659
182,158,37662
183,20,37663
184,24,37665
185,101,37672
186,179,37684
187,98,37686
188,51,37692
189,84,37698
190,120,37700
191,79,37713
192,71,23731
193,133,23770
194,44,23772
195,34,23778
196,173,23783
197,118,23795
198,72,23805
199,62,23823
200,212,23830
201,67,23834
202,70,23850
203,123,23855
204,109,23864
205,167,23865
206,66,23870
207,106,23872
208,111,23873
209,23,23905
210,107,23908
211,76,23909
212,208,23913
213,17,23925
214,109,23929
215,209,23962
216,107,23964
217,69,23970
218,220,23972
219,31,23976
220,12,23987
221,11,23996
222,69,24004
223,30,24017
224,85,37701
225,91,37710
226,93,37717
227,27,37724
228,163,37740
229,139,37762
230,118,37766
231,16,37774
232,63,37776
233,212,37791
234,3,37793
235,173,37798
236,3,37811
237,4,37819
238,92,37820
239,58,37849
240,46,37862
241,90,37863
242,94,37866
243,9,37869
244,204,37870
245,133,37871
246,28,37874
247,55,37885
248,32,37906
249,111,37909
250,84,37912
251,140,37918
252,8,37922
253,91,37925
254,91,37927
255,70,37928
256,113,50591
257,129,50612
258,181,50634
259,34,50643
260,35,50644
261,92,50703
262,83,50711
263,79,50738
264,24,50778
265,185,50785
266,198,50830
267,55,50855
268,98,50861
269,73,50972
270,28,50993
271,45,51009
272,118,51071
273,16,51091
274,207,51112
275,213,51194
276,130,51207
277,64,51209
278,53,51221
279,104,51225
280,140,51230
281,62,51265
282,4,51280
283,86,51289
284,22,51307
285,54,51314
286,99,51337
287,97,51378
288,19,47895
289,111,47896
290,173,47897
291,82,47899
292,20,47908
293,101,47914
294,57,47918
295,86,47920
296,75,47928
297,3,47943
298,95,47947
299,83,47956
300,23,47959
301,20,47974
302,108,47988
303,123,47991
304,6,47994
305,131,48012
306,103,48024
307,84,48025
308,195,48035
309,217,48044
310,0,48048
311,99,48051
312,140,48052
313,173,48057
314,96,48065
315,65,48070
316,4,48071
317,207,48088
318,90,48100
319,57,48101
320,101,49463
321,77,49465
322,113,49471
323,73,49477
324,23,49480
325,193,49483
326,42,49484
327,34,49487
328,20,49488
329,98,49489
330,97,49492
331,98,49493
332,21,49494
333,179,49495
334,104,49498
335,19,49499
336,131,49512
337,43,49514
338,72,49518
339,35,49520
340,127,49522
341,35,49525
342,11,49528
343,216,49529
344,173,49530
345,35,49531
346,115,49532
347,35,49533
348,204,49538
349,209,49541
350,79,49545
351,198,49548
352,173,19053
353,11,19055
354,41,19077
355,37,19080
356,108,19082
357,55,19090
358,208,19100
359,87,19101
360,158,19124
361,3,19128
362,96,19130
363,31,19135
364,94,19140
365,9,19147
366,198,19148
367,28,19150
368,140,19154
369,94,19155
370,4,19161
371,68,19178
372,220,19182
373,65,19188
374,70,19196
375,34,19229
376,121,19234
377,217,19248
378,179,19259
379,132,19283
380,11,19288
381,69,19302
382,87,19312
383,141,19314
384,143,20327
385,137,20343
386,70,20344
387,118,20352
388,138,20353
389,84,20357
390,193,20363
391,94,20372
392,76,20375
393,51,20387
394,46,20391
395,111,20404
396,61,20408
397,38,20410
398,124,20414
399,128,20429
400,118,20432
401,81,20448
402,193,20461
403,78,20469
404,87,20490
405,76,20509
406,216,20519
407,208,20530
408,91,20535
409,76,20539
410,12,20542
411,55,20570
412,20,20573
413,11,20582
414,6,20600
415,49,20603
416,69,42627
417,19,42637
418,73,42643
419,91,42654
420,72,42659
421,133,42663
422,3,42667
423,42,42672
424,13,42673
425,127,42676
426,97,42678
427,28,42680
428,53,42688
429,193,42696
430,45,42698
431,13,42703
432,31,42711
433,207,42714
434,204,42723
435,58,42730
436,185,42731
437,138,42733
438,73,42739
439,55,42745
440,217,42751
441,179,42759
442,72,42762
443,33,42768
444,213,42772
445,1,42773
446,77,42775
447,62,42776
448,216,27764
449,59,27769
450,71,27770
451,116,27787
452,204,27793
453,59,27798
454,215,27805
455,7,27810
456,62,27821
457,61,27823
458,67,27827
459,185,27838
460,51,27841
461,101,27854
462,70,27856
463,139,27875
464,40,27887
465,135,27896
466,72,27908
467,66,27909
468,35,27921
469,216,27932
470,167,27936
471,4,27943
472,117,27949
473,114,27953
474,113,27954
475,98,27971
476,99,27980
477,0,27983
478,53,27985
479,65,27991
480,64,29677
481,117,29687
482,107,29689
483,70,29690
484,98,29694
485,69,29700
486,99,29704
487,72,29707
488,139,29711
489,113,29724
490,43,29733
491,73,29736
492,173,29737
493,88,29738
494,88,29740
495,158,29741
496,110,29745
497,0,29747
498,117,29757
499,34,29773
500,79,29774
501,132,29784
502,155,29788
503,68,29791
504,13,29792
505,208,29799
506,217,29803
507,29,29807
508,108,29813
509,143,29815
510,127,29816
511,33,29822
512,90,35386
513,72,35391
514,207,35394
515,44,35403
516,135,35419
517,185,35429
518,88,35433
519,71,35467
520,7,35469
521,59,35478
522,140,35481
523,213,35489
524,64,35492
525,81,35495
526,70,35499
527,13,35502
528,90,35505
529,138,35512
530,214,35519
531,28,35527
532,21,35529
533,118,35534
534,124,35536
535,211,35538
536,109,35540
537,207,35555
538,111,35565
539,134,35573
540,124,35574
541,64,35577
542,8,35585
543,86,35603
544,125,1794
545,97,2013
546,87,2110
547,46,2143
548,9,2321
549,71,2769
550,0,2954
551,101,3094
552,198,3178
553,26,3213
554,0,3227
555,104,3330
556,104,3491
557,158,3597
558,4,3652
559,40,3712
560,77,3802
561,110,3823
562,96,3959
563,65,3964
564,71,4043
565,51,4059
566,78,4121
567,95,4152
568,73,4314
569,106,4502
570,38,4572
571,125,4582
572,69,4588
573,135,4646
574,138,4672
575,138,4717
576,195,45567
577,12,45571
578,124,45587
579,20,45590
580,207,45617
581,129,45629
582,127,45632
583,1,45648
584,92,45661
585,25,45672
586,158,45678
587,134,45716
588,81,45719
589,133,45721
590,54,45732
591,163,45744
592,2,45747
593,94,45748
594,75,45754
595,87,45776
596,100,45777
597,0,45780
598,81,45794
599,58,45797
600,23,45803
601,130,45825
602,211,45826
603,209,45829
604,106,45844
605,140,45864
606,68,45877
607,123,45879
608,78,40814
609,8,40815
610,98,40821
611,6,40828
612,63,40832
613,84,40846
614,91,40878
615,109,40879
616,6,40881
617,72,40882
618,111,40885
619,88,40892
620,90,40903
621,12,40906
622,0,40912
623,34,40918
624,19,40919
625,65,40932
626,107,40935
627,107,40937
628,179,40942
629,67,40945
630,83,40952
631,217,40955
632,132,40965
633,34,40971
634,68,40991
635,131,40999
636,127,41006
637,137,41011
638,45,41013
639,27,41015
640,207,23238
641,81,23239
642,58,23259
643,13,23269
644,43,23284
645,68,23291
646,73,23305
647,98,23310
648,3,23323
649,180,23332
650,131,23337
651,84,23346
652,127,23352
653,67,23367
654,27,23401
655,139,23407
656,100,23410
657,28,23414
658,65,23415
659,217,23416
660,127,23419
661,50,23435
662,80,23436
663,24,23440
664,67,23441
665,134,23442
666,124,23446
667,132,23463
668,3,23465
669,128,23468
670,64,23470
671,17,23495
672,133,30624
673,180,30629
674,81,30630
675,58,30632
676,107,30634
677,109,30636
678,7,30641
679,92,30642
680,127,30645
681,0,30648
682,127,30651
683,180,30654
684,104,30656
685,211,30659
686,17,30660
687,17,30661
688,101,30662
689,119,30663
690,81,30666
691,11,30667
692,22,30669
693,82,30670
694,35,30673
695,112,30679
696,31,30681
697,34,30682
698,138,30685
699,217,30697
700,46,30708
701,78,30710
702,21,30715
703,139,30716
704,16,7678
705,137,7681
706,99,7703
707,70,7721
708,208,7722
709,87,7727
710,72,7736
711,35,7747
712,216,7756
713,180,7762
714,173,7764
715,78,7770
716,6,7776
717,138,7777
718,163,7783
719,45,7791
720,26,7793
721,140,7802
722,21,7808
723,158,7809
724,180,7827
725,123,7838
726,53,7843
727,67,7854
728,43,7860
729,62,7864
730,35,7867
731,107,7874
732,195,7887
733,158,7912
734,3,7914
735,96,7922
736,185,43930
737,135,43942
738,62,43969
739,179,44022
740,217,44051
741,204,44060
742,20,44068
743,207,44092
744,96,44093
745,3,44176
746,83,44178
747,163,44272
748,128,44285
749,100,44407
750,30,44524
751,167,44552
752,98,44629
753,173,44780
754,65,44804
755,92,44856
756,35,44858
757,209,44903
758,45,45014
759,123,45134
760,108,45141
761,207,45225
762,208,45339
763,179,45341
764,179,45379
765,44,45438
766,78,45514
767,44,45529
768,114,23431
769,137,23439
770,83,23444
771,108,23449
772,35,23450
773,19,23457
774,99,23460
775,88,23469
776,116,23473
777,7,23478
778,220,23511
779,217,23519
780,78,23521
781,73,23523
782,114,23529
783,132,23551
784,132,23554
785,131,23563
786,8,23572
787,55,23577
788,35,23588
789,179,23597
790,204,23601
791,71,23609
792,214,23619
793,173,23620
794,120,23640
795,37,23673
796,58,23687
797,79,23692
798,198,23709
799,79,23727
800,43,42450
801,91,42469
802,4,42484
803,108,42503
804,110,42507
805,198,42518
806,214,42529
807,33,42531
808,78,42543
809,120,42548
810,100,42553
811,33,42554
812,207,42555
813,96,42569
814,57,42577
815,73,42582
816,27,42586
817,65,42591
818,207,42595
819,89,42620
820,213,42630
821,16,42631
822,19,42640
823,115,42644
824,53,42648
825,100,42652
826,52,42670
827,137,42692
828,181,42693
829,58,42700
830,3,42716
831,167,42718
832,208,15232
833,13,15253
834,109,15303
835,208,15353
836,76,15366
837,65,15386
838,48,15401
839,20,15441
840,140,15442
841,57,15450
842,198,15461
843,4,15491
844,31,15492
845,68,15501
846,63,15511
847,63,15520
848,26,15588
849,51,15621
850,113,15634
851,24,15670
852,60,15694
853,13,15707
854,32,15726
855,42,15746
856,52,15754
857,20,15775
858,52,15784
859,73,15795
860,75,15830
861,39,15881
862,128,15885
863,3,15892
864,3,29379
865,16,29381
866,198,29382
867,0,29394
868,99,29397
869,127,29401
870,216,29404
871,118,29405
872,63,29408
873,213,29423
874,35,29426
875,108,29427
876,64,29438
877,68,29446
878,81,29453
879,24,29454
880,109,29455
881,141,29456
882,204,29467
883,209,29470
884,62,29472
885,47,29481
886,111,29483
887,64,29484
888,193,29487
889,124,29488
890,23,29506
891,72,29516
892,113,29521
893,193,29526
894,109,29532
895,98,29536
896,97,19531
897,111,19536
898,35,19543
899,82,19547
900,13,19550
901,19,19553
902,70,19557
903,217,19561
904,70,19571
905,207,19572
906,213,19591
907,76,19601
908,29,19635
909,49,19641
910,59,19670
911,69,19675
912,141,19678
913,207,19681
914,12,19703
915,78,19710
916,211,19712
917,16,19719
918,109,19734
919,128,19751
920,92,19753
921,214,19755
922,11,19759
923,114,19767
924,87,19770
925,41,19777
926,9,19794
927,195,19844
928,14,54365
929,83,54367
930,65,54371
931,138,54373
932,55,54377
933,107,54379
934,66,54383
935,47,54389
936,71,54390
937,80,54392
938,123,54394
939,124,54395
940,217,54396
941,195,54397
942,91,54400
943,4,54406
944,84,54408
945,135,54411
946,60,54412
947,62,54415
948,97,54419
949,129,54423
950,132,54428
951,79,54429
952,99,54431
953,68,54434
954,59,54439
955,35,54445
956,54,54446
957,56,54447
958,128,54448
959,71,54451
960,52,44589
961,29,44591
962,88,44593
963,127,44601
964,84,44611
965,68,44617
966,84,44623
967,123,44624
968,220,44626
969,91,44635
970,55,44636
971,143,44638
972,98,44640
973,16,44648
974,58,44650
975,51,44651
976,143,44657
977,8,44661
978,27,44665
979,212,44668
980,158,44674
981,217,44683
982,136,44685
983,180,44688
984,134,44690
985,34,44693
986,16,44695
987,208,44696
988,132,44698
989,63,44706
990,158,44711
991,81,44716
992,137,49671
993,111,49676
994,99,49677
995,109,49679
996,70,49684
997,76,49685
998,12,49686
999,62,49690
1000,204,49693
1001,20,49694
1002,8,49696
1003,92,49697
1004,198,49700
1005,63,49702
1006,60,49703
1007,94,49704
1008,180,49705
1009,19,49706
1010,91,49707
1011,29,49709
1012,213,49710
1013,195,49711
1014,12,49712
1015,119,49714
1016,40,49716
1017,113,49717
1018,49,49719
1019,138,49720
1020,52,49721
1021,106,49722
1022,87,49723
1023,14,49724
1024,16,56142
1025,19,56152
1026,213,56153
1027,49,56154
1028,71,56156
1029,29,56157
1030,198,56158
1031,17,56159
1032,90,56161
1033,30,56163
1034,198,56165
1035,8,56172
1036,15,56173
1037,195,56174
1038,185,56176
1039,11,56177
1040,61,56178
1041,209,56180
1042,179,56184
1043,198,56185
1044,220,56186
1045,173,56189
1046,207,56191
1047,110,56193
1048,108,56195
1049,112,56196
1050,57,56198
1051,211,56200
1052,60,56201
1053,19,56203
1054,110,56207
1055,55,56208
1056,68,44244
1057,64,44248
1058,107,44249
1059,20,44254
1060,195,44261
1061,70,44270
1062,83,44278
1063,214,44289
1064,179,44295
1065,35,44296
1066,99,44300
1067,52,44307
1068,46,44309
1069,138,44315
1070,13,44322
1071,47,44328
1072,138,44332
1073,163,44338
1074,72,44343
1075,128,44350
1076,90,44351
1077,24,44352
1078,99,44369
1079,209,44372
1080,0,44373
1081,115,44398
1082,46,44425
1083,84,44427
1084,131,44432
1085,0,44439
1086,143,44452
1087,140,44461
1088,63,42116
1089,17,42142
1090,34,42144
1091,31,42161
1092,108,42176
1093,52,42182
1094,130,42190
1095,16,42207
1096,41,42227
1097,209,42234
1098,23,42243
1099,12,42245
1100,73,42247
1101,94,42267
1102,16,42274
1103,127,42279
1104,140,42280
1105,54,42300
1106,71,42303
1107,99,42314
1108,8,42329
1109,109,42332
1110,137,42345
1111,45,42369
1112,26,42370
1113,127,42381
1114,113,42386
1115,0,42390
1116,112,42411
1117,109,42412
1118,34,42441
1119,127,42444
1120,16,44930
1121,34,44959
1122,179,44975
1123,92,44994
1124,16,45012
1125,81,45027
1126,21,45034
1127,60,45046
1128,16,45057
1129,136,45060
1130,87,45083
1131,140,45092
1132,35,45098
1133,114,45100
1134,116,45107
1135,58,45132
1136,193,45146
1137,193,45152
1138,39,45193
1139,141,45196
1140,3,45213
1141,139,45256
1142,141,45272
1143,34,45278
1144,19,45363
1145,207,45371
1146,58,45380
1147,198,45390
1148,4,45407
1149,109,45423
1150,70,45428
1151,48,45430
1152,8,8468
1153,77,8470
1154,60,8501
1155,9,8504
1156,119,8508
1157,106,8511
1158,72,8512
1159,58,8522
1160,12,8529
1161,95,8530
1162,81,8536
1163,140,8585
1164,20,8592
1165,35,8598
1166,20,8599
1167,217,8610
1168,207,8615
1169,167,8626
1170,61,8648
1171,21,8649
1172,77,8669
1173,23,8683
1174,12,8686
1175,204,8688
1176,100,8689
1177,60,8694
1178,91,8700
1179,106,8712
1180,51,8714
1181,111,8728
1182,21,8736
1183,58,8739
1184,42,42402
1185,80,42407
1186,41,42409
1187,116,42418
1188,87,42421
1189,125,42427
1190,81,42436
1191,118,42447
1192,52,42459
1193,87,42460
1194,179,42478
1195,8,42479
1196,78,42480
1197,41,42481
1198,120,42483
1199,124,42486
1200,87,42487
1201,71,42494
1202,57,42509
1203,69,42513
1204,115,42519
1205,78,42524
1206,130,42526
1207,216,42556
1208,83,42559
1209,204,42563
1210,134,42566
1211,37,42571
1212,87,42574
1213,19,42590
1214,70,42592
1215,123,42601
1216,2,28720
1217,6,28737
1218,84,28743
1219,95,28746
1220,13,28747
1221,22,28748
1222,2,28751
1223,107,28752
1224,61,28753
1225,19,28756
1226,117,28765
1227,195,28772
1228,3,28774
1229,128,28788
1230,138,28789
1231,87,28791
1232,180,28811
1233,128,28818
1234,35,28820
1235,45,28822
1236,118,28824
1237,28,28826
1238,137,28827
1239,49,28845
1240,113,28849
1241,43,28852
1242,91,28857
1243,35,28878
1244,4,28879
1245,195,28882
1246,109,28884
1247,118,28900
1248,33,34361
1249,116,34362
1250,12,34380
1251,134,34384
1252,61,34385
1253,118,34387
1254,114,34394
1255,98,34398
1256,216,34408
1257,59,34418
1258,181,34423
1259,87,34427
1260,45,34432
1261,204,34434
1262,140,34445
1263,204,34449
1264,209,34453
1265,108,34455
1266,213,34462
1267,28,34479
1268,40,34497
1269,119,34508
1270,40,34516
1271,97,34518
1272,180,34520
1273,123,34521
1274,47,34525
1275,34,34534
1276,209,34539
1277,213,34545
1278,73,34549
1279,207,34551
1280,123,12001
1281,136,12027
1282,11,12029
1283,204,12057
1284,8,12059
1285,140,12110
1286,4,12122
1287,139,12183
1288,193,12189
1289,167,12194
1290,137,12246
1291,173,12340
1292,70,12348
1293,99,12351
1294,106,12366
1295,13,12377
1296,94,12384
1297,104,12396
1298,27,12408
1299,111,12455
1300,204,12458
1301,77,12470
1302,127,12480
1303,207,12485
1304,72,12490
1305,213,12492
1306,77,12555
1307,179,12592
1308,21,12650
1309,44,12679
1310,83,12743
1311,65,12769
1312,181,47410
1313,133,47412
1314,141,47413
1315,16,47415
1316,73,47421
1317,11,47422
1318,16,47428
1319,65,47440
1320,92,47441
1321,214,47442
1322,119,47446
1323,7,47450
1324,133,47451
1325,150,47460
1326,216,47466
1327,55,47467
1328,64,47475
1329,167,47477
1330,35,47478
1331,12,47480
1332,124,47481
1333,87,47482
1334,78,47491
1335,111,47499
1336,114,47501
1337,204,47503
1338,134,47504
1339,68,47505
1340,49,47510
1341,193,47519
1342,220,47520
1343,103,47526
1344,61,21711
1345,138,21730
1346,125,21734
1347,79,21739
1348,143,21743
1349,38,21753
1350,124,21754
1351,138,21759
1352,127,21761
1353,61,21786
1354,42,21793
1355,99,21797
1356,120,21803
1357,143,21806
1358,212,21811
1359,28,21868
1360,91,21885
1361,61,21895
1362,75,21896
1363,96,21924
1364,70,21925
1365,129,21933
1366,214,21934
1367,84,21936
1368,58,21937
1369,68,21942
1370,47,21949
1371,84,21955
1372,92,21971
1373,53,21973
1374,35,21978
1375,40,21988
1376,64,15793
1377,195,15831
1378,83,15834
1379,179,15846
1380,97,15852
1381,99,15861
1382,198,15865
1383,51,15876
1384,34,15884
1385,68,15898
1386,111,15928
1387,76,15931
1388,68,15932
1389,13,15948
1390,82,15959
1391,108,15962
1392,82,15975
1393,83,16016
1394,108,16022
1395,54,16036
1396,17,16041
1397,84,16057
1398,103,16070
1399,202,16074
1400,214,16077
1401,72,16081
1402,95,16082
1403,107,16089
1404,124,16115
1405,125,16129
1406,1,16152
1407,111,16155
1408,47,47218
1409,108,47219
1410,123,47220
1411,63,47222
1412,114,47223
1413,8,47224
1414,69,47228
1415,138,47230
1416,12,47232
1417,3,47236
1418,78,47239
1419,24,47249
1420,116,47252
1421,131,47253
1422,138,47260
1423,76,47261
1424,78,47263
1425,64,47264
1426,125,47266
1427,118,47268
1428,0,47271
1429,98,47276
1430,131,47292
1431,109,47295
1432,143,47298
1433,133,47299
1434,79,47303
1435,17,47307
1436,144,47309
1437,207,47311
1438,44,47312
1439,84,47316
1440,41,45961
1441,216,45965
1442,43,45966
1443,49,45970
1444,163,45971
1445,74,45973
1446,193,45978
1447,20,45980
1448,11,45984
1449,118,45985
1450,185,45986
1451,116,45989
1452,44,45993
1453,118,45996
1454,217,45997
1455,111,46000
1456,71,46001
1457,216,46006
1458,120,46009
1459,217,46011
1460,95,46020
1461,57,46022
1462,0,46024
1463,136,46025
1464,125,46030
1465,135,46031
1466,67,46038
1467,34,46043
1468,132,46048
1469,6,46050
1470,20,46054
1471,204,46055
1472,82,12531
1473,128,12537
1474,112,12540
1475,125,12547
1476,41,12548
1477,127,12551
1478,67,12601
1479,21,12634
1480,103,12639
1481,35,12640
1482,97,12643
1483,180,12667
1484,129,12676
1485,36,12690
1486,40,12698
1487,220,12705
1488,52,12728
1489,41,12774
1490,214,12785
1491,127,12826
1492,37,12829
1493,125,12841
1494,52,12843
1495,28,12851
1496,134,12882
1497,87,12889
1498,109,12897
1499,84,12902
1500,59,12907
1501,185,12919
1502,138,12925
1503,8,12939
1504,6,42222
1505,90,42226
1506,108,42229
1507,132,42233
1508,158,42252
1509,19,42255
1510,17,42259
1511,67,42264
1512,76,42277
1513,100,42282
1514,52,42284
1515,29,42287
1516,19,42297
1517,132,42299
1518,120,42306
1519,17,42309
1520,139,42310
1521,17,42311
1522,209,42320
1523,33,42326
1524,107,42327
1525,73,42330
1526,131,42342
1527,106,42352
1528,35,42355
1529,61,42361
1530,111,42377
1531,116,42395
1532,92,42397
1533,47,42404
1534,124,42416
1535,16,42422
1536,23,7369
1537,78,7370
1538,87,7380
1539,16,7427
1540,100,7436
1541,62,7445
1542,12,7480
1543,4,7485
1544,78,7486
1545,134,7492
1546,8,7497
1547,17,7501
1548,21,7504
1549,181,7505
1550,220,7517
1551,91,7518
1552,28,7524
1553,1,7540
1554,173,7547
1555,0,7575
1556,2,7579
1557,20,7598
1558,17,7623
1559,19,7632
1560,195,7634
1561,181,7636
1562,49,7638
1563,2,7647
1564,42,7691
1565,113,7707
1566,3,7734
1567,123,7779
1568,52,29237
1569,58,29240
1570,138,29281
1571,12,29324
1572,88,29327
1573,37,29328
1574,43,29344
1575,123,29349
1576,135,29365
1577,133,29370
1578,207,29373
1579,109,29380
1580,204,29391
1581,34,29402
1582,129,29418
1583,198,29428
1584,8,29433
1585,62,29434
1586,211,29459
1587,198,29468
1588,71,29480
1589,62,29512
1590,58,29517
1591,34,29534
1592,220,29540
1593,214,29587
1594,107,29593
1595,121,29596
1596,98,29612
1597,135,29614
1598,43,29618
1599,132,29625
1600,41,5948
1601,204,5955
1602,9,5979
1603,67,5996
1604,71,6064
1605,140,6065
1606,207,6088
1607,20,6091
1608,87,6106
1609,35,6107
1610,96,6109
1611,123,6116
1612,204,6157
1613,46,6180
1614,132,6269
1615,12,6347
1616,52,6364
1617,126,6461
1618,72,6526
1619,208,6532
1620,60,6564
1621,70,6577
1622,54,6600
1623,13,6627
1624,141,6628
1625,28,6663
1626,26,6767
1627,66,6768
1628,3,6815
1629,42,6896
1630,135,6904
1631,108,6949
1632,84,37165
1633,181,37243
1634,220,37310
1635,20,37348
1636,55,37413
1637,109,37626
1638,47,37641
1639,214,37833
1640,58,37896
1641,125,37993
1642,101,38075
1643,82,38452
1644,127,38887
1645,140,39179
1646,136,39347
1647,126,40487
1648,220,41289
1649,91,41298
1650,58,41367
1651,118,41382
1652,92,41505
1653,51,41580
1654,63,41643
1655,130,42065
1656,46,42088
1657,49,42149
1658,17,42430
1659,51,42458
1660,37,42645
1661,95,42713
1662,207,42985
1663,113,43822
1664,7,27749
1665,37,27789
1666,94,27846
1667,138,27914
1668,134,27918
1669,88,27945
1670,141,27962
1671,55,27979
1672,55,28170
1673,42,28237
1674,70,28250
1675,204,28481
1676,87,28629
1677,19,28640
1678,207,28661
1679,216,28673
1680,64,28754
1681,0,28786
1682,220,28810
1683,121,28815
1684,9,28821
1685,90,28870
1686,128,28886
1687,6,28945
1688,73,29048
1689,100,29080
1690,124,29137
1691,80,29193
1692,106,29253
1693,214,29259
1694,68,29271
1695,47,29286
1696,13,4250
1697,135,4541
1698,4,4619
1699,131,4671
1700,16,4941
1701,158,5304
1702,117,5633
1703,99,5667
1704,129,5840
1705,111,6551
1706,28,6688
1707,163,6911
1708,103,6967
1709,61,10051
1710,6,10968
1711,94,11016
1712,87,12694
1713,106,13444
1714,35,17347
1715,0,30
1716,86,57
1717,57,126
1718,141,158
1719,57,162
1720,26,187
1721,123,211
1722,220,309
1723,13,580
1724,107,603
1725,204,726
1726,43,970
1727,78,979
1728,70,14613
1729,34,14665
1730,217,14675
1731,106,14683
1732,20,14686
1733,109,14703
1734,99,14723
1735,213,14724
1736,204,14729
1737,58,14733
1738,72,14785
1739,193,14787
1740,97,14839
1741,53,14850
1742,129,14871
1743,73,14877
1744,14,14879
1745,9,14905
1746,11,15020
1747,207,15033
1748,119,15066
1749,179,15076
1750,32,15088
1751,16,15153
1752,19,15154
1753,10,15159
1754,4,15162
1755,59,15196
1756,14,15202
1757,19,15211
1758,12,15212
1759,75,15223
1760,64,58441
1761,70,58442
1762,7,58444
1763,34,58447
1764,220,58448
1765,27,58450
1766,141,58451
1767,97,58452
1768,54,58453
1769,40,58454
1770,134,58456
1771,51,58459
1772,52,58460
1773,111,58462
1774,193,58463
1775,31,58464
1776,204,58466
1777,55,58469
1778,220,58471
1779,107,58478
1780,30,58480
1781,125,58483
1782,139,58486
1783,173,58488
1784,111,58490
1785,138,58491
1786,91,58492
1787,35,58493
1788,23,58494
1789,101,58495
1790,123,58496
1791,138,58498
1792,40,22589
1793,207,22602
1794,19,22606
1795,120,22619
1796,15,22629
1797,114,22631
1798,118,22633
1799,130,22635
1800,109,22639
1801,91,22640
1802,212,22716
1803,71,22719
1804,40,22725
1805,61,22727
1806,70,22732
1807,63,22768
1808,39,22772
1809,70,22793
1810,135,22801
1811,118,22808
1812,129,22815
1813,220,22816
1814,137,22852
1815,70,22876
1816,140,22894
1817,107,22896
1818,3,22903
1819,4,22912
1820,112,22917
1821,64,22938
1822,127,22941
1823,52,22942
1824,195,56481
1825,91,56483
1826,66,56484
1827,104,56486
1828,130,56487
1829,11,56488
1830,129,56491
1831,216,56495
1832,106,56504
1833,115,56505
1834,204,56509
1835,158,56512
1836,84,56517
1837,101,56523
1838,53,56525
1839,8,56527
1840,41,56529
1841,30,56534
1842,70,56538
1843,38,56539
1844,214,56541
1845,123,56542
1846,93,56552
1847,204,56553
1848,11,56556
1849,134,56558
1850,96,56562
1851,125,56563
1852,99,56568
1853,94,56569
1854,90,56571
1855,103,56573
1856,45,3728
1857,13,3756
1858,116,3758
1859,91,3771
1860,41,3772
1861,217,3784
1862,61,3816
1863,180,3837
1864,158,3849
1865,35,3852
1866,81,3853
1867,68,3879
1868,87,3881
1869,68,3889
1870,116,3897
1871,211,3916
1872,98,3979
1873,108,3989
1874,63,3997
1875,60,4004
1876,83,4027
1877,118,4028
1878,12,4062
1879,110,4138
1880,212,4139
1881,204,4145
1882,113,4150
1883,8,4151
1884,38,4176
1885,0,4198
1886,87,4226
1887,106,4239
1888,43,39443
1889,43,39444
1890,104,39447
1891,33,39458
1892,62,39459
1893,12,39460
1894,19,39466
1895,63,39467
1896,139,39470
1897,73,39472
1898,8,39484
1899,53,39491
1900,114,39500
1901,106,39505
1902,54,39512
1903,65,39536
1904,139,39538
1905,8,39541
1906,54,39542
1907,0,39543
1908,73,39556
1909,62,39558
1910,78,39564
1911,73,39582
1912,3,39588
1913,58,39591
1914,124,39595
1915,16,39605
1916,52,39609
1917,86,39612
1918,158,39614
1919,91,39617
1920,173,52845
1921,55,52849
1922,209,52852
1923,68,52856
1924,131,52859
1925,71,52869
1926,127,52873
1927,118,52878
1928,72,52879
1929,79,52882
1930,72,52895
1931,123,52896
1932,11,52905
1933,8,52912
1934,83,52913
1935,78,52920
1936,24,52925
1937,155,52927
1938,76,52945
1939,137,52947
1940,58,52949
1941,34,52954
1942,63,52963
1943,34,52967
1944,131,52968
1945,43,52987
1946,31,52992
1947,41,52993
1948,52,52994
1949,63,53000
1950,65,53003
1951,198,53015
1952,66,44551
1953,204,44554
1954,61,44555
1955,81,44557
1956,0,44558
1957,138,44559
1958,80,44562
1959,47,44567
1960,198,44568
1961,173,44572
1962,81,44575
1963,70,44578
1964,57,44581
1965,124,44583
1966,193,44584
1967,81,44587
1968,41,44588
1969,98,44592
1970,137,44595
1971,12,44597
1972,3,44598
1973,137,44603
1974,173,44604
1975,94,44608
1976,0,44610
1977,34,44612
1978,35,44613
1979,106,44614
1980,94,44619
1981,13,44621
1982,73,44622
1983,208,44631
1984,4,26386
1985,113,26389
1986,70,26398
1987,198,26404
1988,108,26406
1989,23,26425
1990,26,26431
1991,195,26438
1992,99,26443
1993,207,26451
1994,137,26456
1995,96,26462
1996,70,26467
1997,211,26476
1998,207,26483
1999,208,26484
2000,77,26486
2001,7,26500
2002,163,26512
2003,106,26514
2004,27,26517
2005,69,26522
2006,16,26523
2007,4,26524
2008,71,26536
2009,91,26550
2010,195,26555
2011,8,26563
2012,140,26568
2013,12,26570
2014,99,26571
2015,135,26598
2016,119,618
2017,8,629
2018,8,662
2019,76,664
2020,134,707
2021,114,721
2022,36,755
2023,131,791
2024,6,867
2025,19,878
2026,23,884
2027,8,885
2028,43,894
2029,108,897
2030,99,907
2031,82,912
2032,209,928
2033,91,930
2034,83,937
2035,113,940
2036,12,966
2037,26,1058
2038,120,1115
2039,70,1136
2040,212,1171
2041,58,1179
2042,135,1288
2043,207,1336
2044,68,1355
2045,61,1407
2046,138,1418
2047,107,1421
2048,56,52933
2049,64,52934
2050,136,52952
2051,111,52969
2052,135,52977
2053,107,53005
2054,212,53007
2055,158,53038
2056,41,53045
2057,65,53048
2058,101,53050
2059,204,53057
2060,66,53060
2061,131,53067
2062,13,53072
2063,28,53079
2064,131,53081
2065,59,53088
2066,91,53094
2067,111,53095
2068,111,53096
2069,92,53108
2070,28,53109
2071,94,53114
2072,88,53120
2073,198,53132
2074,8,53152
2075,4,53158
2076,51,53163
2077,14,53164
2078,87,53184
2079,158,53188
2080,65,59302
2081,195,59303
2082,17,59305
2083,131,59307
2084,4,59310
2085,65,59314
2086,127,59315
2087,63,59316
2088,58,59318
2089,90,59322
2090,87,59323
2091,24,59324
2092,19,59325
2093,16,59326
2094,143,59327
2095,81,59328
2096,81,59329
2097,73,59330
2098,0,59331
2099,19,59335
2100,34,59336
2101,77,59337
2102,28,59338
2103,99,59339
2104,44,59340
2105,133,59342
2106,8,59343
2107,212,59344
2108,78,59345
2109,220,59346
2110,91,59347
2111,130,59348
2112,35,7645
2113,123,7648
2114,220,7653
2115,14,7666
2116,123,7674
2117,204,7694
2118,91,7699
2119,133,7700
2120,9,7710
2121,208,7726
2122,6,7730
2123,49,7737
2124,35,7738
2125,20,7746
2126,99,7748
2127,2,7767
2128,180,7771
2129,217,7775
2130,118,7794
2131,61,7816
2132,52,7817
2133,40,7821
2134,0,7824
2135,73,7836
2136,69,7849
2137,24,7857
2138,216,7858
2139,0,7889
2140,79,7900
2141,180,7901
2142,94,7915
2143,73,7920
2144,35,28310
2145,32,28334
2146,138,28342
2147,158,28350
2148,65,28351
2149,14,28374
2150,94,28392
2151,105,28425
2152,112,28432
2153,65,28477
2154,79,28501
2155,35,28512
2156,0,28550
2157,124,28560
2158,20,28569
2159,98,28578
2160,12,28580
2161,211,28594
2162,136,28676
2163,132,28680
2164,65,28701
2165,120,28730
2166,134,28740
2167,195,28781
2168,23,28792
2169,92,28796
2170,214,28797
2171,58,28801
2172,106,28848
2173,51,28874
2174,128,28923
2175,44,28960
2176,217,38646
2177,87,38647
2178,143,38658
2179,198,38663
2180,72,38671
2181,209,38675
2182,94,38679
2183,87,38683
2184,212,38684
2185,34,38687
2186,66,38692
2187,193,38694
2188,220,38698
2189,49,38706
2190,116,38710
2191,78,38715
2192,36,38735
2193,16,38738
2194,53,38748
2195,4,38753
2196,217,38755
2197,64,38762
2198,83,38768
2199,17,38769
2200,208,38772
2201,12,38787
2202,35,38805
2203,92,38806
2204,209,38807
2205,220,38808
2206,108,38809
2207,99,38813
2208,207,25675
2209,24,25683
2210,117,25696
2211,110,25698
2212,77,25699
2213,111,25705
2214,123,25706
2215,32,25710
2216,31,25713
2217,34,25715
2218,81,25720
2219,73,25721
2220,35,25727
2221,135,25730
2222,94,25735
2223,107,25736
2224,78,25737
2225,116,25740
2226,81,25743
2227,212,25750
2228,73,25753
2229,133,25763
2230,7,25771
2231,4,25774
2232,98,25783
2233,52,25789
2234,76,25792
2235,204,25793
2236,3,25805
2237,96,25810
2238,51,25817
2239,78,25825
2240,207,14414
2241,76,14418
2242,6,14478
2243,64,14495
2244,101,14530
2245,134,14536
2246,116,14550
2247,57,14564
2248,180,14573
2249,207,14578
2250,131,14581
2251,139,14594
2252,88,14615
2253,101,14616
2254,125,14619
2255,123,14632
2256,92,14639
2257,79,14644
2258,96,14646
2259,31,14650
2260,118,14652
2261,63,14656
2262,126,14685
2263,58,14699
2264,163,14701
2265,43,14706
2266,193,14709
2267,35,14711
2268,88,14718
2269,71,14722
2270,63,14731
2271,34,14732
2272,123,27781
2273,116,27786
2274,220,27804
2275,79,27815
2276,13,27824
2277,50,27831
2278,216,27844
2279,141,27850
2280,19,27864
2281,113,27866
2282,38,27870
2283,100,27872
2284,17,27874
2285,132,27876
2286,139,27882
2287,52,27891
2288,131,27898
2289,68,27900
2290,77,27905
2291,213,27907
2292,123,27910
2293,129,27915
2294,71,27919
2295,54,27924
2296,121,27928
2297,65,27930
2298,12,27942
2299,34,27948
2300,54,27952
2301,50,27958
2302,31,27965
2303,217,27972
2304,193,11896
2305,19,12050
2306,111,12055
2307,6,12063
2308,64,12277
2309,17,12334
2310,49,12424
2311,140,12425
2312,198,12583
2313,180,12597
2314,121,12610
2315,66,12800
2316,97,12805
2317,220,12883
2318,59,13163
2319,214,13170
2320,16,13263
2321,108,13360
2322,204,13731
2323,193,13782
2324,198,13789
2325,63,13889
2326,135,14049
2327,81,14440
2328,18,14579
2329,64,14658
2330,17,14664
2331,13,14773
2332,202,14804
2333,87,14816
2334,70,14872
2335,193,15105
2336,47,15922
2337,195,15927
2338,14,15969
2339,139,15978
2340,95,15979
2341,86,15997
2342,207,16004
2343,3,16026
2344,20,16080
2345,106,16092
2346,80,16096
2347,78,16125
2348,116,16127
2349,123,16134
2350,30,16140
2351,65,16148
2352,208,16156
2353,207,16158
2354,111,16189
2355,3,16190
2356,87,16208
2357,114,16222
2358,75,16238
2359,8,16260
2360,193,16266
2361,7,16274
2362,72,16280
2363,198,16301
2364,35,16307
2365,93,16311
2366,70,16327
2367,126,16359
2368,33,40861
2369,65,40862
2370,214,40863
2371,34,40865
2372,62,40866
2373,9,40870
2374,21,40887
2375,91,40888
2376,101,40891
2377,48,40898
2378,141,40900
2379,13,40901
2380,70,40907
2381,4,40908
2382,37,40910
2383,204,40913
2384,6,40914
2385,61,40915
2386,126,40916
2387,127,40926
2388,96,40927
2389,82,40928
2390,94,40931
2391,12,40936
2392,127,40943
2393,155,40949
2394,28,40958
2395,207,40974
2396,3,40975
2397,7,40980
2398,84,40986
2399,67,40989
2400,97,49068
2401,8,49071
2402,35,49101
2403,131,49110
2404,94,49111
2405,53,49115
2406,58,49120
2407,208,49122
2408,73,49150
2409,24,49165
2410,123,49168
2411,124,49174
2412,65,49222
2413,35,49230
2414,140,49257
2415,104,49317
2416,84,49326
2417,46,49436
2418,217,49439
2419,32,49481
2420,123,49490
2421,11,49517
2422,7,49527
2423,111,49580
2424,116,49640
2425,124,49662
2426,179,49755
2427,127,49761
2428,94,49774
2429,35,49793
2430,139,49801
2431,4,49804
2432,212,17326
2433,60,17338
2434,185,17361
2435,133,17362
2436,61,17395
2437,139,17405
2438,12,17409
2439,96,17416
2440,34,17420
2441,117,17434
2442,120,17446
2443,131,17453
2444,28,17465
2445,95,17475
2446,0,17501
2447,8,17511
2448,4,17525
2449,41,17527
2450,198,17533
2451,193,17571
2452,92,17581
2453,13,17584
2454,64,17611
2455,121,17617
2456,12,17622
2457,94,17623
2458,35,17633
2459,41,17635
2460,87,17663
2461,64,17701
2462,111,17712
2463,37,17713
2464,138,55061
2465,93,55063
2466,136,55065
2467,34,55066
2468,11,55071
2469,134,55075
2470,216,55078
2471,67,55083
2472,69,55084
2473,193,55086
2474,127,55099
2475,111,55107
2476,43,55111
2477,91,55138
2478,34,55139
2479,78,55140
2480,64,55142
2481,31,55148
2482,3,55155
2483,211,55157
2484,139,55160
2485,78,55162
2486,198,55168
2487,155,55193
2488,12,55194
2489,88,55196
2490,107,55202
2491,1,55209
2492,31,55216
2493,20,55233
2494,23,55234
2495,118,55239
2496,43,23813
2497,14,23849
2498,35,23852
2499,133,23866
2500,52,23876
2501,139,23880
2502,104,23885
2503,20,23935
2504,138,23936
2505,193,23947
2506,173,23958
2507,193,24014
2508,16,24016
2509,86,24036
2510,76,24062
2511,92,24067
2512,208,24082
2513,64,24103
2514,112,24153
2515,73,24159
2516,6,24165
2517,60,24166
2518,59,24179
2519,91,24192
2520,195,24196
2521,82,24271
2522,61,24289
2523,77,24324
2524,108,24363
2525,34,24396
2526,49,24421
2527,127,24426
2528,42,56736
2529,58,56745
2530,19,56748
2531,73,56750
2532,127,56752
2533,179,56754
2534,181,56755
2535,46,56756
2536,133,56757
2537,79,56758
2538,119,56759
2539,7,56763
2540,213,56764
2541,193,56768
2542,26,56772
2543,104,56774
2544,96,56776
2545,84,56780
2546,78,56782
2547,128,56788
2548,35,56792
2549,136,56793
2550,40,56794
2551,116,56795
2552,84,56797
2553,54,56799
2554,108,56800
2555,19,56801
2556,78,56803
2557,21,56804
2558,46,56805
2559,0,56807
2560,41,50347
2561,214,50350
2562,34,50354
2563,134,50356
2564,108,50357
2565,173,50370
2566,179,50372
2567,138,50373
2568,107,50375
2569,128,50378
2570,220,50379
2571,8,50383
2572,127,50390
2573,125,50395
2574,163,50400
2575,46,50407
2576,88,50408
2577,17,50419
2578,139,50421
2579,67,50422
2580,60,50431
2581,19,50436
2582,61,50438
2583,73,50440
2584,217,50442
2585,173,50444
2586,123,50446
2587,217,50447
2588,82,50448
2589,65,50451
2590,137,50453
2591,90,50454
2592,131,32159
2593,87,32167
2594,88,32181
2595,15,32188
2596,140,32201
2597,41,32203
2598,111,32206
2599,110,32216
2600,17,32217
2601,21,32219
2602,208,32223
2603,94,32226
2604,173,32228
2605,4,32235
2606,119,32238
2607,35,32239
2608,58,32244
2609,78,32246
2610,52,32249
2611,42,32250
2612,94,32254
2613,179,32260
2614,135,32263
2615,131,32267
2616,81,32268
2617,207,32269
2618,94,32272
2619,131,32273
2620,73,32276
2621,8,32280
2622,20,32287
2623,195,32290
2624,72,45913
2625,141,45918
2626,47,45922
2627,55,45923
2628,54,45924
2629,134,45930
2630,98,45935
2631,64,45936
2632,132,45943
2633,212,45947
2634,14,45951
2635,155,45953
2636,181,45968
2637,96,45969
2638,211,45976
2639,101,45982
2640,35,45983
2641,91,45990
2642,97,45994
2643,58,45998
2644,49,45999
2645,120,46002
2646,43,46003
2647,35,46008
2648,128,46016
2649,52,46017
2650,49,46018
2651,127,46019
2652,107,46023
2653,0,46026
2654,96,46032
2655,217,46033
2656,179,44024
2657,70,44039
2658,131,44045
2659,119,44062
2660,80,44063
2661,3,44074
2662,88,44089
2663,108,44101
2664,82,44105
2665,115,44111
2666,75,44118
2667,76,44119
2668,167,44126
2669,5,44129
2670,128,44132
2671,134,44133
2672,138,44143
2673,72,44149
2674,7,44158
2675,68,44159
2676,55,44167
2677,75,44168
2678,111,44173
2679,104,44175
2680,42,44177
2681,208,44181
2682,130,44203
2683,21,44204
2684,207,44210
2685,185,44222
2686,128,44240
2687,30,44243
2688,0,59607
2689,115,59618
2690,92,59644
2691,48,59648
2692,193,59670
2693,106,59672
2694,136,59686
2695,220,59732
2696,126,59743
2697,96,59762
2698,64,59812
2699,204,59813
2700,213,59818
2701,126,59821
2702,87,59838
2703,53,59872
2704,82,59874
2705,129,59881
2706,129,59884
2707,34,59886
2708,66,59893
2709,126,59898
2710,127,59991
2711,1,60030
2712,195,60064
2713,116,60126
2714,134,60151
2715,58,60189
2716,79,60192
2717,65,60208
2718,64,60228
2719,113,60276
2720,61,45650
2721,15,45652
2722,143,45654
2723,118,45664
2724,131,45673
2725,20,45674
2726,21,45677
2727,34,45680
2728,143,45682
2729,70,45689
2730,198,45693
2731,58,45698
2732,127,45700
2733,135,45704
2734,134,45708
2735,48,45714
2736,34,45718
2737,132,45720
2738,198,45722
2739,65,45726
2740,106,45727
2741,139,45730
2742,68,45738
2743,62,45749
2744,3,45755
2745,13,45756
2746,68,45758
2747,111,45759
2748,42,45764
2749,127,45770
2750,70,45773
2751,212,45775
2752,77,18963
2753,96,19043
2754,111,19058
2755,137,19068
2756,109,19069
2757,3,19070
2758,180,19127
2759,116,19134
2760,28,19143
2761,61,19151
2762,20,19157
2763,217,19162
2764,131,19168
2765,118,19192
2766,84,19194
2767,97,19203
2768,65,19223
2769,76,19277
2770,125,19370
2771,53,19380
2772,19,19442
2773,76,19451
2774,84,19454
2775,212,19485
2776,131,19488
2777,72,19554
2778,79,19629
2779,137,19647
2780,49,19826
2781,20,19833
2782,64,19836
2783,104,19902
2784,19,12737
2785,73,12745
2786,179,12755
2787,127,12771
2788,167,12772
2789,193,12773
2790,7,12807
2791,68,12809
2792,208,12810
2793,135,12834
2794,135,12845
2795,101,12850
2796,66,12879
2797,45,12886
2798,81,12888
2799,78,12913
2800,20,12928
2801,11,12932
2802,84,12935
2803,58,12942
2804,83,12949
2805,117,12959
2806,76,12960
2807,134,12962
2808,41,12969
2809,134,12984
2810,52,13006
2811,124,13007
2812,45,13014
2813,61,13015
2814,167,13026
2815,9,13034
2816,181,17982
2817,106,18007
2818,21,18029
2819,47,18031
2820,87,18034
2821,82,18076
2822,59,18093
2823,140,18105
2824,62,18107
2825,100,18113
2826,98,18134
2827,3,18136
2828,47,18143
2829,130,18154
2830,120,18163
2831,137,18195
2832,213,18220
2833,103,18221
2834,64,18294
2835,139,18296
2836,185,18299
2837,135,18306
2838,141,18313
2839,23,18315
2840,16,18328
2841,217,18330
2842,139,18332
2843,116,18335
2844,181,18340
2845,64,18345
2846,121,18349
2847,51,18358
2848,134,57382
2849,135,57389
2850,70,57394
2851,84,57407
2852,1,57408
2853,76,57413
2854,7,57415
2855,17,57421
2856,84,57424
2857,104,57427
2858,193,57429
2859,130,57433
2860,75,57434
2861,124,57439
2862,47,57442
2863,23,57445
2864,34,57446
2865,19,57452
2866,103,57454
2867,36,57455
2868,209,57458
2869,51,57461
2870,99,57462
2871,73,57464
2872,124,57466
2873,138,57467
2874,167,57469
2875,108,57479
2876,21,57480
2877,121,57484
2878,118,57488
2879,128,57489
2880,51,10958
2881,8,10961
2882,94,10976
2883,19,11007
2884,72,11009
2885,72,11010
2886,67,11064
2887,220,11066
2888,39,11071
2889,83,11079
2890,66,11113
2891,17,11117
2892,96,11139
2893,12,11159
2894,82,11161
2895,208,11162
2896,193,11176
2897,41,11185
2898,217,11196
2899,134,11199
2900,193,11223
2901,125,11228
2902,14,11231
2903,217,11232
2904,52,11236
2905,47,11287
2906,57,11333
2907,84,11337
2908,137,11342
2909,204,11362
2910,4,11371
2911,55,11375
2912,94,1236
2913,92,1248
2914,0,1320
2915,71,1335
2916,112,1390
2917,131,1397
2918,13,1398
2919,20,1399
2920,123,1408
2921,6,1417
2922,67,1424
2923,137,1442
2924,9,1479
2925,69,1491
2926,33,1523
2927,20,1547
2928,68,1571
2929,60,1576
2930,104,1625
2931,49,1630
2932,217,1662
2933,65,1667
2934,51,1704
2935,0,1736
2936,51,1775
2937,61,1835
2938,61,1850
2939,98,1866
2940,51,1872
2941,0,1894
2942,23,1908
2943,193,1921
2944,91,2196
2945,40,2305
2946,21,2392
2947,68,2425
2948,139,2429
2949,77,2443
2950,58,2501
2951,87,2554
2952,220,2587
2953,0,2634
2954,87,2648
2955,204,2718
2956,45,2745
2957,173,2752
2958,208,2765
2959,83,2772
2960,19,2868
2961,53,2873
2962,213,2893
2963,70,2923
2964,32,2976
2965,132,2977
2966,7,2980
2967,19,3021
2968,198,3179
2969,8,3188
2970,96,3207
2971,35,3256
2972,120,3269
2973,112,3344
2974,87,3359
2975,19,3393
2976,16,21240
2977,61,21254
2978,131,21260
2979,133,21261
2980,217,21274
2981,65,21288
2982,107,21324
2983,61,21340
2984,17,21352
2985,220,21359
2986,71,21368
2987,42,21375
2988,8,21410
2989,41,21417
2990,133,21421
2991,100,21445
2992,131,21448
2993,31,21453
2994,68,21462
2995,193,21465
2996,64,21466
2997,220,21469
2998,83,21475
2999,57,21501
3000,121,21504
3001,55,21506
3002,195,21543
3003,91,21561
3004,53,21566
3005,138,21568
3006,95,21571
3007,90,21586
3008,130,33315
3009,60,33409
3010,173,33422
3011,100,33503
3012,121,33504
3013,179,33572
3014,13,33648
3015,100,33794
3016,140,33884
3017,141,33974
3018,34,34035
3019,110,34089
3020,52,34161
3021,35,34203
3022,115,34241
3023,82,34266
3024,62,34309
3025,204,34343
3026,27,34372
3027,20,34383
3028,204,34580
3029,208,34585
3030,107,34617
3031,133,34692
3032,68,34722
3033,19,34833
3034,70,34861
3035,106,34897
3036,91,34905
3037,134,34997
3038,124,35073
3039,97,35127
3040,92,12093
3041,130,12109
3042,98,12115
3043,76,12127
3044,45,12169
3045,82,12177
3046,54,12213
3047,96,12241
3048,173,12245
3049,198,12254
3050,92,12255
3051,214,12269
3052,41,12279
3053,86,12281
3054,193,12288
3055,52,12293
3056,131,12302
3057,107,12333
3058,59,12369
3059,65,12388
3060,70,12392
3061,84,12431
3062,130,12443
3063,118,12476
3064,78,12515
3065,34,12521
3066,204,12523
3067,52,12606
3068,47,12609
3069,135,12615
3070,198,12620
3071,64,12632
3072,128,32654
3073,132,32656
3074,125,32658
3075,207,32668
3076,129,32672
3077,68,32677
3078,181,32678
3079,209,32684
3080,57,32691
3081,198,32693
3082,28,32694
3083,98,32706
3084,43,32717
3085,207,32724
3086,7,32732
3087,33,32741
3088,204,32761
3089,82,32767
3090,108,32772
3091,119,32778
3092,193,32780
3093,5,32794
3094,195,32808
3095,94,32814
3096,104,32820
3097,16,32824
3098,65,32832
3099,208,32833
3100,52,32837
3101,141,32855
3102,211,32856
3103,129,32868
3104,16,31990
3105,209,31994
3106,88,31995
3107,158,32001
3108,88,32006
3109,179,32027
3110,114,32029
3111,179,32030
3112,204,32036
3113,2,32037
3114,52,32042
3115,118,32060
3116,65,32070
3117,99,32071
3118,43,32074
3119,127,32076
3120,213,32077
3121,158,32084
3122,138,32086
3123,98,32087
3124,47,32096
3125,76,32108
3126,58,32110
3127,24,32112
3128,138,32120
3129,8,32122
3130,121,32127
3131,163,32134
3132,73,32141
3133,138,32145
3134,207,32150
3135,77,32151
3136,38,52261
3137,216,52269
3138,134,52274
3139,45,52277
3140,19,52278
3141,73,52279
3142,44,52282
3143,20,52287
3144,204,52288
3145,2,52291
3146,111,52297
3147,127,52299
3148,181,52301
3149,143,52302
3150,163,52303
3151,58,52304
3152,58,52305
3153,91,52306
3154,209,52313
3155,8,52320
3156,58,52332
3157,34,52340
3158,195,52348
3159,107,52355
3160,55,52365
3161,217,52373
3162,68,52374
3163,70,52378
3164,9,52387
3165,62,52390
3166,19,52392
3167,78,52393
3168,104,8222
3169,49,8229
3170,24,8237
3171,84,8241
3172,71,8252
3173,6,8253
3174,121,8258
3175,65,8261
3176,8,8266
3177,32,8273
3178,104,8276
3179,81,8294
3180,35,8310
3181,20,8323
3182,6,8336
3183,19,8350
3184,96,8351
3185,212,8358
3186,31,8362
3187,135,8366
3188,29,8371
3189,100,8373
3190,134,8376
3191,0,8383
3192,12,8386
3193,140,8398
3194,133,8402
3195,19,8404
3196,94,8412
3197,13,8414
3198,89,8422
3199,137,8436
3200,79,45269
3201,220,45270
3202,81,45281
3203,208,45282
3204,62,45287
3205,208,45290
3206,3,45294
3207,116,45296
3208,20,45297
3209,59,45302
3210,35,45303
3211,19,45306
3212,103,45308
3213,114,45309
3214,129,45310
3215,84,45312
3216,116,45319
3217,74,45320
3218,107,45322
3219,134,45323
3220,55,45326
3221,27,45327
3222,88,45329
3223,35,45333
3224,198,45336
3225,208,45338
3226,73,45344
3227,13,45345
3228,71,45346
3229,220,45347
3230,216,45349
3231,71,45352
3232,8,55253
3233,193,55255
3234,99,55258
3235,27,55260
3236,209,55263
3237,87,55264
3238,135,55266
3239,96,55267
3240,91,55276
3241,14,55277
3242,91,55278
3243,34,55279
3244,96,55280
3245,91,55281
3246,84,55282
3247,13,55289
3248,208,55293
3249,40,55296
3250,94,55299
3251,41,55302
3252,96,55305
3253,207,55310
3254,87,55311
3255,89,55312
3256,34,55313
3257,66,55314
3258,204,55316
3259,78,55318
3260,46,55319
3261,10,55322
3262,77,55325
3263,73,55330
3264,8,11768
3265,111,11776
3266,35,11785
3267,83,11787
3268,212,11813
3269,211,11845
3270,41,11874
3271,92,11887
3272,11,11889
3273,34,11899
3274,216,11900
3275,208,11905
3276,0,11909
3277,8,11917
3278,220,11921
3279,77,11926
3280,38,11927
3281,86,11935
3282,45,11938
3283,132,11975
3284,19,11981
3285,173,12000
3286,70,12007
3287,123,12040
3288,124,12044
3289,59,12047
3290,94,12053
3291,73,12060
3292,204,12071
3293,111,12084
3294,88,12091
3295,111,12126
3296,81,50242
3297,77,50245
3298,42,50246
3299,29,50247
3300,82,50249
3301,195,50251
3302,30,50255
3303,20,50257
3304,217,50259
3305,91,50274
3306,58,50276
3307,87,50278
3308,135,50279
3309,220,50280
3310,125,50285
3311,62,50291
3312,131,50292
3313,62,50294
3314,179,50295
3315,130,50303
3316,58,50307
3317,137,50309
3318,51,50312
3319,132,50314
3320,87,50315
3321,21,50320
3322,59,50326
3323,29,50330
3324,88,50331
3325,35,50332
3326,181,50340
3327,99,50345
3328,3,41179
3329,214,41183
3330,217,41192
3331,127,41201
3332,113,41205
3333,81,41211
3334,47,41223
3335,84,41224
3336,108,41251
3337,137,41260
3338,94,41269
3339,80,41290
3340,45,41301
3341,115,41314
3342,111,41328
3343,47,41343
3344,10,41360
3345,163,41369
3346,58,41414
3347,214,41417
3348,137,41441
3349,217,41455
3350,135,41476
3351,28,41478
3352,124,41485
3353,94,41487
3354,54,41490
3355,130,41499
3356,124,41520
3357,33,41537
3358,141,41543
3359,38,41560
3360,34,38760
3361,99,38767
3362,23,38771
3363,135,38773
3364,124,38781
3365,155,38784
3366,6,38785
3367,24,38790
3368,7,38793
3369,209,38798
3370,77,38799
3371,139,38803
3372,37,38815
3373,70,38821
3374,3,38823
3375,127,38824
3376,27,38839
3377,53,38840
3378,76,38844
3379,4,38853
3380,93,38855
3381,212,38861
3382,65,38867
3383,53,38878
3384,43,38879
3385,80,38889
3386,115,38892
3387,17,38899
3388,49,38901
3389,71,38903
3390,132,38909
3391,94,38911
3392,112,24873
3393,94,24876
3394,125,24880
3395,35,24904
3396,44,24940
3397,138,24951
3398,94,24955
3399,42,24978
3400,20,24980
3401,207,24981
3402,173,24982
3403,88,24988
3404,104,25013
3405,139,25016
3406,118,25074
3407,207,25097
3408,35,25119
3409,193,25147
3410,41,25158
3411,115,25160
3412,70,25172
3413,19,25224
3414,209,25239
3415,143,25353
3416,52,25360
3417,64,25391
3418,70,25392
3419,99,25422
3420,24,25428
3421,0,25459
3422,216,25471
3423,111,25495
3424,204,12644
3425,58,12661
3426,209,12681
3427,204,12683
3428,64,12685
3429,126,12727
3430,106,12736
3431,77,12742
3432,31,12759
3433,4,12763
3434,12,12779
3435,42,12787
3436,76,12788
3437,139,12792
3438,35,12803
3439,116,12811
3440,66,12825
3441,64,12849
3442,127,12864
3443,52,12871
3444,30,12884
3445,136,12890
3446,140,12895
3447,69,12898
3448,179,12904
3449,193,12929
3450,49,12954
3451,136,12958
3452,8,12968
3453,40,12977
3454,87,13013
3455,185,13021
3456,81,33695
3457,44,33704
3458,63,33709
3459,115,33726
3460,213,33728
3461,99,33745
3462,82,33746
3463,86,33768
3464,113,33806
3465,45,33817
3466,134,33825
3467,138,33831
3468,209,33848
3469,95,33850
3470,67,33853
3471,208,33861
3472,52,33886
3473,26,33891
3474,75,33894
3475,107,33902
3476,7,33903
3477,96,33907
3478,124,33910
3479,37,33911
3480,118,33933
3481,31,33946
3482,14,33955
3483,92,33960
3484,84,33978
3485,35,33996
3486,198,34007
3487,212,34018
3488,204,21500
3489,125,21505
3490,49,21534
3491,76,21537
3492,70,21542
3493,66,21551
3494,82,21552
3495,123,21563
3496,195,21569
3497,70,21576
3498,217,21579
3499,78,21589
3500,207,21592
3501,180,21602
3502,117,21616
3503,209,21631
3504,64,21641
3505,112,21642
3506,115,21654
3507,64,21658
3508,129,21661
3509,217,21669
3510,21,21672
3511,58,21677
3512,40,21692
3513,51,21694
3514,119,21696
3515,49,21698
3516,5,21701
3517,16,21703
3518,193,21706
3519,65,21708
3520,179,42721
3521,87,42728
3522,65,42748
3523,217,42754
3524,68,42756
3525,45,42767
3526,34,42770
3527,58,42784
3528,12,42799
3529,135,42808
3530,202,42827
3531,101,42835
3532,118,42836
3533,19,42852
3534,37,42861
3535,113,42905
3536,198,42906
3537,207,42911
3538,45,42919
3539,103,42926
3540,82,42928
3541,82,42941
3542,32,42943
3543,220,42972
3544,125,43001
3545,6,43008
3546,127,43023
3547,217,43048
3548,97,43075
3549,125,43092
3550,61,43095
3551,3,43130
3552,84,17650
3553,78,17658
3554,60,17700
3555,195,17711
3556,21,17719
3557,8,17722
3558,64,17733
3559,209,17758
3560,21,17761
3561,21,17769
3562,212,17792
3563,33,17800
3564,85,17831
3565,1,17854
3566,42,17863
3567,8,17874
3568,47,17917
3569,77,17927
3570,108,17935
3571,58,17937
3572,27,17946
3573,37,17962
3574,107,17980
3575,108,18006
3576,216,18015
3577,140,18032
3578,119,18067
3579,70,18084
3580,130,18169
3581,12,18173
3582,3,18215
3583,42,18223
3584,35,54184
3585,116,54188
3586,30,54190
3587,207,54193
3588,88,54201
3589,76,54203
3590,110,54204
3591,155,54207
3592,70,54214
3593,126,54215
3594,28,54216
3595,30,54220
3596,98,54225
3597,45,54228
3598,88,54235
3599,10,54237
3600,75,54244
3601,173,54246
3602,8,54250
3603,111,54255
3604,24,54258
3605,213,54261
3606,179,54268
3607,220,54271
3608,66,54272
3609,179,54274
3610,70,54275
3611,135,54277
3612,14,54278
3613,213,54280
3614,68,54281
3615,73,54282
3616,19,59371
3617,76,59372
3618,59,59373
3619,65,59377
3620,27,59378
3621,58,59386
3622,12,59391
3623,117,59400
3624,24,59405
3625,35,59406
3626,33,59410
3627,20,59414
3628,140,59418
3629,30,59421
3630,135,59427
3631,84,59429
3632,138,59437
3633,87,59439
3634,57,59440
3635,70,59442
3636,204,59456
3637,84,59457
3638,101,59466
3639,32,59474
3640,40,59476
3641,28,59481
3642,66,59483
3643,84,59491
3644,129,59497
3645,212,59500
3646,132,59506
3647,27,59523
3648,75,2407
3649,43,2411
3650,86,2412
3651,66,2416
3652,37,2444
3653,127,2462
3654,217,2483
3655,14,2510
3656,6,2532
3657,163,2563
3658,61,2605
3659,8,2647
3660,84,2660
3661,124,2755
3662,61,2756
3663,204,2776
3664,207,2796
3665,141,2812
3666,114,2826
3667,3,2965
3668,73,2987
3669,52,2994
3670,99,3103
3671,140,3105
3672,10,3121
3673,99,3142
3674,3,3155
3675,61,3201
3676,193,3225
3677,129,3288
3678,220,3294
3679,63,3311
3680,32,4994
3681,0,5005
3682,123,5069
3683,0,5072
3684,51,5074
3685,71,5089
3686,91,5119
3687,92,5202
3688,0,5242
3689,32,5256
3690,117,5307
3691,41,5323
3692,70,5326
3693,217,5334
3694,121,5341
3695,132,5344
3696,41,5347
3697,1,5355
3698,33,5360
3699,81,5366
3700,100,5398
3701,99,5403
3702,8,5410
3703,131,5422
3704,118,5465
3705,217,5468
3706,212,5499
3707,131,5502
3708,131,5543
3709,68,5551
3710,32,5562
3711,8,5583
3712,23,14351
3713,20,14355
3714,12,14371
3715,42,14376
3716,34,14399
3717,43,14404
3718,108,14407
3719,132,14420
3720,123,14446
3721,121,14448
3722,120,14558
3723,133,14599
3724,116,14601
3725,54,14629
3726,34,14676
3727,17,14677
3728,62,14687
3729,173,14700
3730,13,14705
3731,195,14721
3732,204,14728
3733,31,14762
3734,9,14765
3735,41,14778
3736,55,14781
3737,13,14811
3738,118,14829
3739,101,14840
3740,94,14855
3741,51,14865
3742,9,14867
3743,212,14870
3744,45,13892
3745,220,13927
3746,16,13928
3747,104,13935
3748,16,13952
3749,124,13966
3750,76,13968
3751,70,14001
3752,20,14068
3753,65,14073
3754,42,14092
3755,96,14117
3756,94,14120
3757,120,14124
3758,4,14132
3759,84,14148
3760,11,14162
3761,34,14164
3762,193,14166
3763,100,14179
3764,173,14186
3765,133,14212
3766,77,14215
3767,77,14223
3768,70,14266
3769,139,14272
3770,62,14331
3771,76,14339
3772,56,14366
3773,107,14392
3774,138,14403
3775,101,14413
3776,207,26310
3777,26,26312
3778,108,26316
3779,90,26318
3780,58,26322
3781,40,26323
3782,124,26333
3783,129,26334
3784,71,26340
3785,127,26342
3786,211,26345
3787,61,26351
3788,38,26353
3789,94,26355
3790,32,26356
3791,130,26364
3792,31,26373
3793,53,26376
3794,12,26388
3795,4,26390
3796,127,26391
3797,28,26392
3798,70,26394
3799,131,26395
3800,202,26397
3801,45,26399
3802,61,26401
3803,204,26405
3804,73,26411
3805,212,26413
3806,135,26420
3807,39,26421
3808,118,1017
3809,3,2307
3810,55,3940
3811,52,1654
3812,131,83
3813,12,45
3814,31,4064
3815,173,4556
3816,16,3821
3817,220,1066
3818,4,1462
3819,163,4522
3820,41,1191
3821,173,10363
3822,35,215
3823,135,5274
3824,35,4454
3825,12,4503
3826,58,293
3827,40,381
3828,58,1000
3829,133,4013
3830,76,715
3831,32,816
3832,14,1848
3833,113,114
3834,2,778
3835,98,906
3836,78,198
3837,17,340
3838,61,944
3839,37,1304
3840,64,16851
3841,73,16867
3842,124,16875
3843,181,16879
3844,13,16881
3845,62,16898
3846,64,16918
3847,40,16919
3848,87,16931
3849,84,16942
3850,207,16948
3851,101,16949
3852,73,16955
3853,109,16959
3854,83,16975
3855,43,17014
3856,179,17034
3857,139,17043
3858,23,17061
3859,140,17072
3860,134,17073
3861,4,17087
3862,179,17090
3863,78,17129
3864,137,17155
3865,214,17164
3866,51,17168
3867,124,17172
3868,106,17174
3869,115,17180
3870,4,17185
3871,61,17195
3872,64,3934
3873,91,3950
3874,78,3983
3875,179,4072
3876,14,4097
3877,212,4134
3878,49,4157
3879,207,4160
3880,91,4163
3881,1,4171
3882,49,4179
3883,106,4187
3884,88,4219
3885,209,4234
3886,116,4261
3887,47,4375
3888,61,4388
3889,128,4420
3890,23,4422
3891,116,4456
3892,155,4467
3893,55,4533
3894,86,4545
3895,23,4581
3896,76,4683
3897,220,4780
3898,101,4802
3899,59,4837
3900,0,5100
3901,41,5117
3902,55,5176
3903,180,5248
3904,9,8008
3905,58,8062
3906,45,8091
3907,3,8095
3908,108,8107
3909,23,8183
3910,28,8198
3911,208,8220
3912,9,8271
3913,173,8282
3914,72,8363
3915,61,8370
3916,59,8377
3917,8,8392
3918,155,8457
3919,135,8564
3920,193,8576
3921,82,8664
3922,209,8761
3923,173,8832
3924,112,8899
3925,143,8934
3926,16,8977
3927,21,8980
3928,118,8994
3929,35,9017
3930,20,9041
3931,207,9063
3932,91,9156
3933,60,9312
3934,47,9337
3935,42,9349
3936,35,12945
3937,104,12956
3938,64,12963
3939,81,12972
3940,195,12987
3941,99,13008
3942,124,13011
3943,198,13019
3944,136,13039
3945,106,13050
3946,71,13054
3947,108,13056
3948,179,13060
3949,20,13081
3950,136,13109
3951,88,13111
3952,43,13126
3953,77,13132
3954,96,13138
3955,173,13141
3956,214,13144
3957,208,13154
3958,59,13155
3959,20,13157
3960,135,13159
3961,17,13174
3962,195,13185
3963,106,13189
3964,37,13193
3965,87,13220
3966,193,13233
3967,48,13238
3968,141,16492
3969,68,16503
3970,181,16511
3971,217,16520
3972,137,16527
3973,124,16531
3974,107,16547
3975,207,16555
3976,19,16567
3977,84,16573
3978,138,16578
3979,198,16579
3980,35,16580
3981,128,16596
3982,21,16601
3983,73,16628
3984,11,16651
3985,90,16652
3986,35,16661
3987,139,16686
3988,70,16692
3989,70,16709
3990,32,16712
3991,82,16743
3992,19,16764
3993,52,16765
3994,217,16767
3995,84,16781
3996,82,16792
3997,95,16803
3998,12,16808
3999,79,16818
4000,84,59559
4001,11,59560
4002,167,59562
4003,106,59563
4004,141,59565
4005,125,59566
4006,202,59568
4007,96,59569
4008,55,59570
4009,133,59571
4010,34,59572
4011,88,59573
4012,131,59576
4013,216,59577
4014,66,59578
4015,204,59579
4016,208,59582
4017,219,59588
4018,104,59589
4019,45,59590
4020,110,59591
4021,86,59592
4022,88,59593
4023,118,59595
4024,64,59596
4025,59,59597
4026,139,59599
4027,158,59600
4028,87,59603
4029,24,59605
4030,35,59606
4031,181,59608
4032,84,10711
4033,72,10712
4034,41,10755
4035,76,10768
4036,107,10781
4037,139,10789
4038,84,10797
4039,20,10801
4040,195,10810
4041,220,10813
4042,91,10822
4043,193,10825
4044,21,10867
4045,75,10921
4046,131,10929
4047,127,10956
4048,40,10972
4049,28,10980
4050,128,10998
4051,52,11005
4052,5,11014
4053,126,11028
4054,195,11042
4055,103,11059
4056,204,11098
4057,209,11100
4058,130,11112
4059,100,11120
4060,141,11126
4061,41,11158
4062,198,11160
4063,66,11182
4064,133,25624
4065,127,25626
4066,21,25632
4067,143,25637
4068,98,25656
4069,64,25679
4070,31,25686
4071,133,25687
4072,91,25688
4073,55,25689
4074,59,25691
4075,132,25714
4076,34,25752
4077,45,25754
4078,132,25772
4079,62,25781
4080,193,25785
4081,88,25788
4082,55,25797
4083,212,25819
4084,181,25847
4085,35,25871
4086,208,25872
4087,19,25902
4088,75,25926
4089,32,25935
4090,53,25988
4091,107,25990
4092,3,25999
4093,86,26017
4094,115,26020
4095,0,26024
4096,95,404
4097,66,422
4098,83,471
4099,59,502
4100,91,512
4101,35,513
4102,52,514
4103,207,518
4104,173,528
4105,138,540
4106,52,546
4107,55,577
4108,4,604
4109,26,646
4110,87,647
4111,132,653
4112,53,663
4113,119,671
4114,204,689
4115,45,691
4116,3,725
4117,34,751
4118,0,754
4119,131,763
4120,63,792
4121,70,797
4122,204,798
4123,49,800
4124,195,814
4125,26,865
4126,13,866
4127,104,896
4128,124,33643
4129,116,33645
4130,116,33649
4131,37,33660
4132,37,33671
4133,58,33682
4134,41,33717
4135,125,33732
4136,2,33740
4137,40,33749
4138,51,33750
4139,133,33754
4140,76,33767
4141,91,33796
4142,64,33816
4143,204,33821
4144,138,33823
4145,8,33827
4146,127,33830
4147,64,33839
4148,137,33852
4149,113,33857
4150,131,33868
4151,42,33870
4152,120,33872
4153,87,33875
4154,51,33880
4155,29,33881
4156,167,33900
4157,98,33908
4158,101,33917
4159,60,33920
4160,198,43280
4161,106,43288
4162,84,43292
4163,87,43293
4164,134,43298
4165,134,43299
4166,12,43301
4167,111,43302
4168,58,43306
4169,31,43310
4170,111,43321
4171,88,43327
4172,107,43335
4173,127,43344
4174,195,43347
4175,40,43350
4176,140,43351
4177,127,43352
4178,72,43353
4179,111,43355
4180,119,43365
4181,113,43372
4182,136,43373
4183,193,43377
4184,117,43381
4185,180,43386
4186,13,43393
4187,101,43397
4188,209,43408
4189,66,43409
4190,139,43410
4191,17,43417
4192,118,13780
4193,211,13818
4194,68,13822
4195,78,13823
4196,209,13845
4197,73,13855
4198,132,13858
4199,43,13871
4200,93,13881
4201,193,13903
4202,35,13912
4203,108,13949
4204,77,13981
4205,13,13987
4206,37,14021
4207,57,14036
4208,18,14083
4209,94,14094
4210,78,14168
4211,9,14208
4212,71,14237
4213,9,14242
4214,53,14270
4215,88,14293
4216,216,14302
4217,179,14322
4218,131,14349
4219,72,14353
4220,68,14365
4221,3,14389
4222,24,14410
4223,13,14415
4224,127,15135
4225,204,15151
4226,31,15204
4227,106,15209
4228,114,15270
4229,213,15271
4230,123,15287
4231,70,15293
4232,141,15295
4233,35,15300
4234,42,15305
4235,198,15335
4236,7,15338
4237,138,15351
4238,47,15360
4239,179,15393
4240,204,15398
4241,4,15428
4242,84,15444
4243,139,15464
4244,92,15521
4245,17,15522
4246,124,15527
4247,19,15562
4248,42,15564
4249,40,15569
4250,111,15570
4251,46,15572
4252,109,15603
4253,217,15650
4254,216,15682
4255,13,15718
4256,128,14799
4257,108,14812
4258,65,14828
4259,52,14842
4260,25,14858
4261,70,14860
4262,213,14866
4263,8,14881
4264,37,14908
4265,90,14931
4266,124,14958
4267,179,14965
4268,198,14976
4269,138,14980
4270,65,15009
4271,97,15014
4272,117,15017
4273,55,15032
4274,70,15034
4275,121,15039
4276,110,15050
4277,131,15062
4278,207,15071
4279,195,15080
4280,116,15092
4281,70,15103
4282,208,15141
4283,141,15142
4284,65,15169
4285,16,15179
4286,96,15216
4287,195,15220
4288,193,40418
4289,214,40433
4290,43,40435
4291,167,40437
4292,81,40447
4293,64,40448
4294,20,40449
4295,220,40451
4296,35,40455
4297,114,40458
4298,137,40459
4299,114,40473
4300,4,40485
4301,163,40489
4302,30,40495
4303,78,40501
4304,78,40503
4305,58,40504
4306,40,40507
4307,99,40509
4308,98,40514
4309,128,40524
4310,19,40533
4311,30,40553
4312,204,40567
4313,119,40575
4314,79,40602
4315,42,40610
4316,42,40615
4317,167,40616
4318,126,40618
4319,96,40628
4320,220,7499
4321,35,7503
4322,135,7511
4323,67,7512
4324,70,7516
4325,99,7521
4326,100,7525
4327,9,7532
4328,64,7572
4329,92,7590
4330,140,7601
4331,207,7608
4332,3,7612
4333,131,7629
4334,47,7655
4335,59,7676
4336,140,7693
4337,135,7723
4338,220,7724
4339,58,7732
4340,59,7733
4341,87,7741
4342,124,7745
4343,70,7752
4344,49,7768
4345,217,7773
4346,98,7774
4347,81,7786
4348,8,7797
4349,52,7807
4350,134,7825
4351,73,7830
4352,4,24542
4353,128,24553
4354,137,24586
4355,134,24592
4356,204,24602
4357,76,24607
4358,123,24609
4359,75,24614
4360,198,24627
4361,52,24628
4362,131,24631
4363,66,24635
4364,193,24636
4365,17,24645
4366,123,24646
4367,124,24648
4368,167,24660
4369,81,24673
4370,107,24674
4371,21,24677
4372,127,24685
4373,34,24687
4374,193,24693
4375,2,24696
4376,141,24697
4377,31,24699
4378,68,24700
4379,97,24702
4380,141,24712
4381,127,24714
4382,3,24715
4383,213,24716
4384,10,18251
4385,17,18455
4386,42,18457
4387,58,18472
4388,70,18527
4389,81,18574
4390,173,18717
4391,125,18844
4392,79,18857
4393,121,18989
4394,108,19024
4395,36,19206
4396,80,19209
4397,207,19321
4398,118,19374
4399,198,19436
4400,96,19438
4401,138,19487
4402,35,19525
4403,72,19552
4404,114,19573
4405,173,19620
4406,0,19639
4407,71,19667
4408,20,19686
4409,131,19801
4410,53,19837
4411,86,19883
4412,58,19947
4413,143,19963
4414,124,20119
4415,93,20424
4416,60,51578
4417,81,51579
4418,14,51580
4419,16,51582
4420,81,51583
4421,8,51585
4422,119,51590
4423,111,51592
4424,98,51593
4425,11,51595
4426,204,51601
4427,88,51602
4428,68,51607
4429,43,51608
4430,131,51611
4431,73,51613
4432,132,51614
4433,87,51617
4434,50,51618
4435,134,51622
4436,41,51641
4437,173,51642
4438,42,51644
4439,94,51647
4440,42,51648
4441,208,51656
4442,93,51661
4443,127,51664
4444,32,51669
4445,126,51674
4446,83,51679
4447,35,51682
4448,21,47115
4449,137,47119
4450,129,47120
4451,35,47122
4452,34,47124
4453,138,47125
4454,51,47126
4455,62,47128
4456,98,47130
4457,8,47132
4458,193,47133
4459,41,47138
4460,56,47141
4461,216,47143
4462,17,47146
4463,181,47152
4464,207,47155
4465,208,47157
4466,83,47160
4467,87,47162
4468,76,47164
4469,141,47167
4470,71,47169
4471,193,47173
4472,12,47174
4473,47,47179
4474,47,47180
4475,30,47182
4476,128,47183
4477,23,47186
4478,133,47187
4479,27,47191
4480,61,13285
4481,8,13293
4482,29,13311
4483,220,13342
4484,51,13366
4485,16,13368
4486,79,13385
4487,40,13430
4488,208,13486
4489,53,13509
4490,103,13527
4491,29,13543
4492,3,13618
4493,52,13624
4494,44,13664
4495,137,13675
4496,117,13688
4497,12,13762
4498,118,13808
4499,71,13821
4500,24,13834
4501,34,13846
4502,114,13868
4503,109,13905
4504,83,13926
4505,46,13982
4506,20,14016
4507,78,14043
4508,128,14050
4509,173,14067
4510,92,14072
4511,220,14115
4512,16,51684
4513,117,51686
4514,97,51694
4515,99,51699
4516,216,51700
4517,217,51709
4518,41,51711
4519,62,51715
4520,124,51717
4521,57,51730
4522,116,51732
4523,46,51734
4524,86,51736
4525,64,51744
4526,84,51749
4527,109,51754
4528,111,51776
4529,24,51783
4530,198,51792
4531,204,51798
4532,139,51801
4533,204,51802
4534,65,51803
4535,20,51804
4536,136,51808
4537,37,51814
4538,28,51816
4539,84,51821
4540,107,51834
4541,14,51837
4542,63,51840
4543,91,51844
4544,124,8733
4545,204,8745
4546,12,8753
4547,173,8755
4548,0,8774
4549,71,8784
4550,91,8787
4551,61,8793
4552,40,8796
4553,9,8806
4554,13,8816
4555,83,8827
4556,207,8861
4557,98,8862
4558,44,8863
4559,4,8864
4560,216,8870
4561,131,8896
4562,43,8919
4563,104,8931
4564,2,8990
4565,173,9004
4566,84,9010
4567,115,9033
4568,3,9040
4569,55,9076
4570,91,9086
4571,207,9147
4572,2,9158
4573,61,9163
4574,100,9180
4575,34,9308
4576,213,17079
4577,26,17084
4578,216,17110
4579,118,17115
4580,173,17116
4581,84,17120
4582,62,17140
4583,198,17141
4584,71,17163
4585,137,17201
4586,65,17245
4587,113,17259
4588,101,17270
4589,55,17272
4590,107,17290
4591,85,17310
4592,134,17327
4593,94,17331
4594,81,17333
4595,36,17337
4596,43,17348
4597,30,17354
4598,59,17365
4599,73,17378
4600,73,17381
4601,17,17488
4602,52,17534
4603,111,17570
4604,111,17625
4605,27,17627
4606,79,17637
4607,19,17645
4608,48,19384
4609,181,19386
4610,193,19395
4611,78,19409
4612,71,19410
4613,135,19416
4614,125,19418
4615,77,19446
4616,207,19450
4617,8,19452
4618,115,19476
4619,59,19513
4620,28,19520
4621,220,19521
4622,134,19528
4623,179,19539
4624,62,19562
4625,135,19567
4626,68,19580
4627,21,19586
4628,19,19593
4629,88,19595
4630,70,19603
4631,214,19608
4632,72,19610
4633,131,19611
4634,93,19624
4635,41,19636
4636,43,19642
4637,40,19643
4638,106,19648
4639,123,19684
4640,11,57595
4641,40,57642
4642,61,58062
4643,46,58153
4644,9,58581
4645,133,58589
4646,8,457
4647,3,480
4648,40,500
4649,19,522
4650,81,644
4651,179,658
4652,86,682
4653,41,810
4654,41,819
4655,167,913
4656,77,933
4657,130,1569
4658,93,1595
4659,124,2338
4660,111,2378
4661,45,2556
4662,76,3340
4663,52,3371
4664,21,3486
4665,19,3522
4666,9,3677
4667,113,4468
4668,54,4956
4669,141,4978
4670,51,4980
4671,120,5015
4672,131,35549
4673,220,35557
4674,78,35558
4675,52,35563
4676,107,35588
4677,29,35592
4678,204,35598
4679,127,35611
4680,131,35624
4681,173,35625
4682,71,35636
4683,78,35658
4684,26,35660
4685,0,35663
4686,55,35668
4687,65,35675
4688,84,35679
4689,60,35680
4690,37,35685
4691,70,35690
4692,47,35692
4693,123,35693
4694,78,35696
4695,19,35724
4696,213,35746
4697,47,35748
4698,202,35749
4699,3,35751
4700,78,35752
4701,134,35755
4702,158,35756
4703,99,35762
4704,32,1932
4705,43,1976
4706,19,1992
4707,112,2067
4708,55,2070
4709,58,2085
4710,80,2135
4711,140,2136
4712,220,2181
4713,109,2213
4714,0,2230
4715,47,2233
4716,101,2342
4717,195,2387
4718,83,2390
4719,211,2410
4720,92,2457
4721,133,2477
4722,98,2498
4723,138,2578
4724,46,2613
4725,43,2614
4726,7,2635
4727,6,2665
4728,128,2688
4729,20,2698
4730,204,2722
4731,135,2754
4732,128,2818
4733,40,2830
4734,220,2916
4735,52,2931
4736,65,42817
4737,23,42866
4738,106,42871
4739,62,42876
4740,141,42877
4741,67,42880
4742,133,42908
4743,212,42917
4744,61,42923
4745,91,42930
4746,57,42931
4747,217,42933
4748,0,42957
4749,123,42983
4750,52,43013
4751,0,43044
4752,214,43047
4753,27,43058
4754,180,43104
4755,58,43110
4756,82,43114
4757,100,43118
4758,70,43122
4759,98,43141
4760,81,43146
4761,204,43174
4762,118,43192
4763,75,43226
4764,119,43239
4765,20,43274
4766,143,43296
4767,42,43315
4768,208,43108
4769,81,43112
4770,125,43115
4771,118,43124
4772,109,43129
4773,46,43142
4774,72,43164
4775,118,43168
4776,64,43170
4777,185,43176
4778,120,43177
4779,204,43181
4780,110,43183
4781,140,43185
4782,217,43190
4783,68,43191
4784,33,43203
4785,72,43210
4786,195,43218
4787,34,43228
4788,33,43232
4789,11,43236
4790,23,43246
4791,73,43253
4792,141,43255
4793,120,43257
4794,214,43260
4795,0,43262
4796,198,43268
4797,107,43275
4798,58,43279
4799,49,43286
4800,140,8417
4801,124,8420
4802,179,8472
4803,98,8495
4804,49,8588
4805,129,8637
4806,70,8656
4807,19,8658
4808,64,8679
4809,133,8708
4810,134,8709
4811,16,8724
4812,0,8786
4813,83,8817
4814,15,8824
4815,32,8882
4816,98,8892
4817,49,8969
4818,40,8981
4819,49,8983
4820,27,9064
4821,70,9080
4822,53,9090
4823,28,9105
4824,195,9107
4825,127,9115
4826,34,9144
4827,113,9152
4828,94,9172
4829,24,9177
4830,141,9186
4831,141,9193
4832,21,3741
4833,209,3757
4834,42,3767
4835,141,3768
4836,204,3878
4837,20,3892
4838,44,3939
4839,216,3941
4840,38,4016
4841,70,4023
4842,3,4026
4843,0,4051
4844,12,4063
4845,41,4079
4846,12,4149
4847,24,4255
4848,87,4270
4849,48,4332
4850,63,4337
4851,92,4373
4852,212,4378
4853,76,4486
4854,34,4499
4855,108,4512
4856,27,4516
4857,123,4542
4858,55,4561
4859,99,4585
4860,80,4601
4861,1,4604
4862,204,4621
4863,61,4637
4864,11,35401
4865,68,35406
4866,134,35409
4867,209,35410
4868,180,35411
4869,163,35422
4870,20,35423
4871,220,35424
4872,40,35425
4873,53,35426
4874,179,35437
4875,63,35440
4876,88,35442
4877,179,35448
4878,140,35452
4879,35,35460
4880,115,35471
4881,33,35474
4882,140,35477
4883,64,35494
4884,4,35496
4885,91,35498
4886,216,35507
4887,137,35522
4888,43,35523
4889,126,35524
4890,80,35543
4891,118,35560
4892,216,35569
4893,3,35571
4894,216,35580
4895,128,35581
4896,131,49553
4897,124,49561
4898,97,49562
4899,117,49563
4900,63,49566
4901,220,49568
4902,92,49571
4903,11,49583
4904,61,49592
4905,204,49593
4906,217,49599
4907,19,49603
4908,207,49604
4909,6,49609
4910,97,49612
4911,60,49617
4912,26,49619
4913,56,49623
4914,131,49631
4915,20,49633
4916,179,49635
4917,83,49637
4918,41,49644
4919,21,49645
4920,73,49646
4921,70,49651
4922,34,49654
4923,60,49656
4924,127,49657
4925,34,49660
4926,92,49665
4927,109,49666
4928,163,21314
4929,104,21322
4930,44,21328
4931,28,21332
4932,212,21335
4933,111,21376
4934,71,21381
4935,99,21399
4936,37,21413
4937,79,21418
4938,130,21428
4939,2,21491
4940,55,21511
4941,43,21513
4942,119,21521
4943,3,21522
4944,211,21523
4945,104,21525
4946,42,21529
4947,202,21559
4948,106,21567
4949,99,21572
4950,77,21583
4951,12,21600
4952,68,21603
4953,106,21636
4954,108,21638
4955,41,21689
4956,47,21710
4957,134,21722
4958,106,21766
4959,58,21777
4960,131,4319
4961,82,4325
4962,24,4338
4963,82,4410
4964,180,4494
4965,28,4495
4966,35,4523
4967,137,4535
4968,173,4536
4969,158,4537
4970,129,4549
4971,87,4557
4972,141,4607
4973,0,4687
4974,108,4751
4975,64,4773
4976,40,4794
4977,138,4829
4978,19,4852
4979,20,4871
4980,83,4873
4981,87,4897
4982,40,4904
4983,138,4907
4984,80,4926
4985,19,4936
4986,72,4952
4987,19,4967
4988,33,4968
4989,12,5022
4990,125,5033
4991,24,5042
4992,19,25993
4993,27,25995
4994,124,26012
4995,202,26015
4996,8,26026
4997,207,26029
4998,82,26034
4999,72,26048
5000,45,26051
5001,111,26059
5002,185,26078
5003,96,26088
5004,111,26090
5005,181,26094
5006,208,26111
5007,127,26112
5008,38,26117
5009,66,26119
5010,2,26123
5011,207,26133
5012,208,26136
5013,181,26146
5014,4,26151
5015,8,26167
5016,70,26171
5017,109,26179
5018,32,26187
5019,208,26192
5020,207,26194
5021,129,26195
5022,217,26198
5023,20,26199
5024,70,55499
5025,2,55500
5026,137,55504
5027,14,55505
5028,208,55508
5029,20,55511
5030,129,55512
5031,30,55514
5032,28,55515
5033,216,55518
5034,128,55523
5035,155,55525
5036,13,55527
5037,76,55534
5038,124,55535
5039,123,55540
5040,204,55541
5041,41,55544
5042,125,55545
5043,64,55546
5044,99,55547
5045,42,55556
5046,67,55560
5047,70,55562
5048,12,55564
5049,55,55565
5050,212,55566
5051,198,55567
5052,6,55574
5053,31,55575
5054,198,55577
5055,101,55584
5056,32,56939
5057,127,56958
5058,17,56964
5059,125,56978
5060,2,56998
5061,16,57000
5062,207,57005
5063,43,57026
5064,47,57073
5065,19,57086
5066,87,57105
5067,87,57118
5068,3,57123
5069,111,57131
5070,12,57137
5071,212,57153
5072,107,57164
5073,112,57166
5074,138,57172
5075,204,57173
5076,132,57192
5077,137,57200
5078,181,57202
5079,0,57203
5080,47,57206
5081,116,57216
5082,118,57259
5083,87,57263
5084,73,57277
5085,70,57284
5086,92,57296
5087,21,57322
5088,163,27056
5089,87,27057
5090,67,27060
5091,37,27062
5092,83,27070
5093,216,27075
5094,15,27077
5095,111,27079
5096,208,27099
5097,103,27104
5098,198,27107
5099,140,27112
5100,116,27114
5101,28,27116
5102,116,27139
5103,17,27145
5104,90,27152
5105,73,27155
5106,59,27158
5107,106,27176
5108,130,27181
5109,29,27195
5110,106,27209
5111,49,27213
5112,57,27215
5113,46,27227
5114,217,27242
5115,208,27243
5116,65,27245
5117,220,27247
5118,34,27251
5119,44,27262
5120,41,38525
5121,70,38537
5122,58,38551
5123,78,38570
5124,70,38580
5125,64,38600
5126,58,38601
5127,136,38616
5128,73,38624
5129,12,38635
5130,96,38643
5131,53,38660
5132,128,38688
5133,127,38693
5134,216,38702
5135,96,38709
5136,94,38718
5137,19,38723
5138,88,38737
5139,204,38763
5140,127,38775
5141,16,38795
5142,163,38800
5143,198,38801
5144,34,38810
5145,135,38812
5146,220,38818
5147,65,38826
5148,58,38828
5149,68,38830
5150,220,38865
5151,24,38874
5152,37,48481
5153,133,48493
5154,76,48494
5155,71,48496
5156,93,48498
5157,126,48516
5158,220,48522
5159,207,48526
5160,123,48539
5161,132,48540
5162,163,48546
5163,30,48556
5164,140,48561
5165,43,48569
5166,57,48589
5167,73,48594
5168,101,48602
5169,24,48604
5170,64,48612
5171,54,48636
5172,42,48638
5173,209,48639
5174,80,48651
5175,33,48668
5176,87,48672
5177,123,48674
5178,134,48676
5179,123,48683
5180,135,48685
5181,133,48691
5182,64,48705
5183,207,48709
5184,51,45064
5185,27,45065
5186,209,45068
5187,27,45070
5188,78,45075
5189,38,45076
5190,109,45082
5191,41,45088
5192,181,45091
5193,107,45101
5194,58,45106
5195,19,45112
5196,94,45113
5197,59,45117
5198,133,45118
5199,17,45130
5200,92,45135
5201,135,45136
5202,35,45144
5203,91,45153
5204,60,45154
5205,108,45159
5206,81,45160
5207,217,45161
5208,47,45164
5209,209,45165
5210,136,45167
5211,134,45168
5212,6,45171
5213,4,45172
5214,193,45179
5215,35,45183
5216,135,42976
5217,141,42981
5218,89,42989
5219,53,42991
5220,116,42992
5221,220,42997
5222,57,43002
5223,100,43009
5224,116,43026
5225,81,43027
5226,45,43031
5227,82,43032
5228,125,43033
5229,82,43036
5230,43,43049
5231,120,43053
5232,16,43057
5233,58,43060
5234,193,43061
5235,40,43064
5236,121,43065
5237,173,43072
5238,133,43080
5239,209,43084
5240,99,43086
5241,131,43096
5242,35,43099
5243,51,43102
5244,99,43113
5245,62,43139
5246,73,43140
5247,41,43143
5248,34,28396
5249,27,28400
5250,98,28401
5251,58,28406
5252,14,28408
5253,46,28410
5254,132,28412
5255,113,28421
5256,105,28423
5257,103,28426
5258,49,28429
5259,35,28433
5260,211,28436
5261,71,28440
5262,127,28447
5263,125,28451
5264,57,28452
5265,34,28453
5266,73,28457
5267,127,28459
5268,110,28461
5269,141,28466
5270,65,28470
5271,181,28476
5272,211,28479
5273,95,28484
5274,84,28493
5275,30,28495
5276,44,28497
5277,71,28500
5278,40,28503
5279,207,28506
5280,65,59349
5281,93,59350
5282,97,59351
5283,208,59352
5284,163,59353
5285,135,59354
5286,17,59355
5287,32,59356
5288,97,59357
5289,216,59358
5290,4,59360
5291,64,59361
5292,173,59362
5293,198,59363
5294,83,59366
5295,217,59374
5296,80,59375
5297,214,59376
5298,35,59379
5299,75,59380
5300,20,59381
5301,216,59382
5302,68,59383
5303,140,59384
5304,27,59385
5305,78,59387
5306,35,59389
5307,16,59392
5308,204,59393
5309,52,59394
5310,217,59395
5311,7,59396
5312,52,37458
5313,101,37472
5314,88,37475
5315,60,37483
5316,119,37494
5317,44,37499
5318,138,37509
5319,76,37517
5320,106,37532
5321,83,37536
5322,82,37554
5323,185,37558
5324,35,37565
5325,47,37579
5326,91,37588
5327,70,37590
5328,98,37591
5329,135,37597
5330,34,37611
5331,84,37617
5332,94,37621
5333,217,37628
5334,87,37633
5335,114,37645
5336,98,37648
5337,117,37655
5338,11,37666
5339,110,37669
5340,57,37670
5341,58,37679
5342,4,37690
5343,33,37697
5344,92,26435
5345,220,26439
5346,140,26441
5347,128,26448
5348,54,26449
5349,204,26452
5350,60,26453
5351,99,26454
5352,77,26465
5353,60,26468
5354,220,26473
5355,213,26498
5356,39,26516
5357,124,26518
5358,87,26525
5359,35,26529
5360,17,26541
5361,130,26543
5362,220,26544
5363,131,26548
5364,128,26553
5365,119,26564
5366,28,26565
5367,96,26574
5368,220,26576
5369,198,26577
5370,131,26580
5371,132,26583
5372,42,26592
5373,111,26596
5374,101,26601
5375,137,26608
5376,20,40734
5377,55,40736
5378,65,40737
5379,213,40740
5380,68,40747
5381,73,40750
5382,119,40751
5383,23,40754
5384,117,40756
5385,41,40757
5386,42,40762
5387,106,40763
5388,198,40774
5389,112,40784
5390,75,40791
5391,57,40794
5392,42,40804
5393,19,40808
5394,13,40810
5395,130,40812
5396,123,40822
5397,209,40824
5398,123,40825
5399,31,40830
5400,65,40831
5401,35,40833
5402,99,40834
5403,7,40843
5404,68,40845
5405,93,40850
5406,104,40852
5407,41,40854
5408,62,40071
5409,17,40073
5410,173,40091
5411,58,40110
5412,140,40129
5413,185,40151
5414,0,40152
5415,37,40160
5416,12,40162
5417,35,40163
5418,92,40167
5419,78,40172
5420,21,40184
5421,21,40188
5422,127,40201
5423,14,40202
5424,67,40207
5425,131,40210
5426,26,40211
5427,216,40213
5428,3,40220
5429,213,40224
5430,49,40226
5431,35,40228
5432,97,40233
5433,216,40262
5434,70,40265
5435,179,40268
5436,27,40279
5437,41,40281
5438,217,40282
5439,125,40285
5440,209,39153
5441,81,39160
5442,96,39168
5443,16,39171
5444,91,39172
5445,78,39180
5446,111,39192
5447,34,39205
5448,19,39207
5449,32,39208
5450,109,39210
5451,133,39213
5452,131,39214
5453,66,39222
5454,49,39231
5455,118,39240
5456,3,39246
5457,113,39248
5458,179,39255
5459,25,39256
5460,127,39264
5461,71,39266
5462,107,39270
5463,118,39275
5464,216,39278
5465,34,39281
5466,124,39282
5467,34,39283
5468,158,39284
5469,45,39285
5470,61,39291
5471,129,39294
5472,119,50169
5473,78,50174
5474,99,50178
5475,44,50179
5476,87,50180
5477,118,50181
5478,4,50184
5479,217,50186
5480,193,50188
5481,84,50190
5482,140,50197
5483,57,50199
5484,134,50201
5485,123,50202
5486,78,50203
5487,68,50204
5488,61,50205
5489,128,50206
5490,5,50208
5491,214,50210
5492,61,50214
5493,139,50217
5494,155,50218
5495,12,50222
5496,118,50223
5497,70,50224
5498,135,50226
5499,93,50229
5500,93,50231
5501,109,50234
5502,108,50235
5503,73,50237
5504,216,53584
5505,69,53585
5506,140,53586
5507,125,53587
5508,7,53588
5509,6,53591
5510,211,53594
5511,92,53595
5512,20,53599
5513,208,53600
5514,209,53603
5515,41,53604
5516,97,53609
5517,115,53610
5518,83,53613
5519,75,53619
5520,193,53620
5521,124,53622
5522,44,53624
5523,108,53625
5524,139,53628
5525,20,53629
5526,38,53632
5527,66,53635
5528,209,53636
5529,51,53638
5530,31,53639
5531,213,53641
5532,82,53645
5533,73,53647
5534,71,53650
5535,123,53651
5536,21,1729
5537,21,1744
5538,97,1754
5539,155,1757
5540,81,1760
5541,217,1774
5542,79,1786
5543,213,1807
5544,12,1808
5545,60,1829
5546,20,1839
5547,91,1858
5548,92,1860
5549,135,1879
5550,101,1885
5551,220,1887
5552,40,1889
5553,37,1890
5554,0,1913
5555,15,1949
5556,45,1952
5557,78,1977
5558,35,1989
5559,21,2039
5560,35,2056
5561,73,2079
5562,207,2087
5563,128,2116
5564,140,2147
5565,13,2154
5566,41,2185
5567,52,2245
5568,35,44330
5569,139,44333
5570,99,44335
5571,87,44336
5572,68,44340
5573,110,44341
5574,54,44354
5575,209,44357
5576,44,44363
5577,124,44364
5578,58,44365
5579,216,44366
5580,207,44376
5581,111,44385
5582,80,44393
5583,10,44403
5584,41,44410
5585,163,44424
5586,208,44426
5587,128,44428
5588,78,44433
5589,120,44441
5590,96,44446
5591,131,44449
5592,55,44451
5593,61,44453
5594,14,44455
5595,72,44457
5596,51,44459
5597,78,44470
5598,14,44474
5599,173,44486
5600,4,9605
5601,173,9613
5602,91,9641
5603,79,9671
5604,195,9674
5605,45,9676
5606,213,9682
5607,68,9683
5608,3,9684
5609,163,9685
5610,79,9697
5611,135,9708
5612,24,9719
5613,173,9722
5614,117,9726
5615,12,9727
5616,27,9733
5617,204,9734
5618,97,9735
5619,82,9741
5620,209,9747
5621,61,9748
5622,104,9749
5623,23,9750
5624,91,9751
5625,58,9758
5626,21,9762
5627,35,9779
5628,79,9793
5629,132,9795
5630,21,9805
5631,35,9938
5632,217,38487
5633,62,38490
5634,56,38493
5635,121,38495
5636,143,38502
5637,84,38508
5638,212,38517
5639,4,38521
5640,213,38522
5641,100,38529
5642,106,38534
5643,208,38540
5644,73,38542
5645,216,38543
5646,116,38548
5647,216,38549
5648,131,38552
5649,76,38555
5650,17,38561
5651,3,38565
5652,179,38571
5653,71,38572
5654,125,38579
5655,138,38588
5656,134,38594
5657,82,38602
5658,104,38605
5659,106,38608
5660,41,38609
5661,217,38611
5662,106,38618
5663,217,38620
5664,94,48555
5665,134,48557
5666,116,48558
5667,136,48559
5668,15,48560
5669,70,48563
5670,109,48564
5671,10,48572
5672,179,48575
5673,106,48576
5674,82,48577
5675,170,48582
5676,108,48586
5677,81,48588
5678,57,48593
5679,76,48599
5680,78,48605
5681,0,48607
5682,116,48608
5683,138,48609
5684,86,48610
5685,52,48611
5686,195,48613
5687,180,48617
5688,134,48619
5689,69,48620
5690,23,48623
5691,208,48625
5692,211,48629
5693,214,48630
5694,126,48631
5695,171,48633
5696,129,54669
5697,72,54704
5698,70,54743
5699,108,54768
5700,127,54782
5701,23,54790
5702,55,54801
5703,59,54804
5704,12,54830
5705,139,54837
5706,25,54844
5707,92,54845
5708,33,54932
5709,208,54936
5710,58,54945
5711,19,54977
5712,120,54993
5713,217,55005
5714,87,55104
5715,86,55105
5716,135,55106
5717,125,55112
5718,107,55124
5719,92,55126
5720,17,55153
5721,52,55165
5722,77,55192
5723,40,55198
5724,193,55212
5725,137,55226
5726,66,55232
5727,124,55246
5728,127,58796
5729,17,58802
5730,138,58804
5731,83,58808
5732,123,58810
5733,207,58812
5734,6,58815
5735,135,58819
5736,55,58820
5737,46,58824
5738,47,58826
5739,52,58835
5740,207,58836
5741,20,58837
5742,20,58839
5743,78,58840
5744,61,58842
5745,12,58846
5746,217,58847
5747,12,58848
5748,207,58854
5749,117,58856
5750,70,58864
5751,118,58872
5752,195,58878
5753,12,58879
5754,29,58882
5755,104,58884
5756,79,58887
5757,51,58891
5758,5,58892
5759,141,58894
5760,110,19630
5761,28,19632
5762,64,19662
5763,208,19679
5764,28,19738
5765,91,19743
5766,124,19745
5767,111,19769
5768,213,19773
5769,106,19774
5770,61,19823
5771,213,19940
5772,58,19950
5773,48,19969
5774,111,19993
5775,128,20015
5776,207,20017
5777,193,20021
5778,179,20023
5779,135,20052
5780,111,20057
5781,65,20065
5782,12,20079
5783,34,20086
5784,88,20118
5785,76,20158
5786,13,20160
5787,137,20164
5788,207,20171
5789,180,20174
5790,17,20190
5791,134,20215
5792,41,35600
5793,65,35620
5794,91,35648
5795,220,35652
5796,120,35655
5797,77,35659
5798,40,35665
5799,37,35666
5800,106,35672
5801,1,35676
5802,123,35721
5803,214,35723
5804,20,35726
5805,14,35727
5806,58,35735
5807,77,35787
5808,6,35795
5809,85,35803
5810,108,35815
5811,209,35820
5812,211,35828
5813,137,35846
5814,207,35849
5815,97,35852
5816,2,35865
5817,91,35875
5818,99,35933
5819,6,35935
5820,55,35940
5821,123,35941
5822,27,35943
5823,128,35965
5824,99,49902
5825,204,49937
5826,212,49962
5827,107,50010
5828,58,50012
5829,73,50042
5830,108,50051
5831,0,50064
5832,67,50076
5833,87,50112
5834,185,50115
5835,48,50123
5836,41,50125
5837,72,50163
5838,58,50189
5839,60,50240
5840,98,50250
5841,125,50270
5842,217,50283
5843,70,50300
5844,98,50327
5845,28,50348
5846,214,50349
5847,123,50396
5848,110,50406
5849,11,50416
5850,193,50443
5851,132,50465
5852,130,50477
5853,116,50508
5854,106,50550
5855,109,50577
5856,217,50080
5857,1,50082
5858,220,50085
5859,131,50086
5860,198,50092
5861,6,50095
5862,137,50097
5863,70,50098
5864,103,50100
5865,217,50107
5866,107,50108
5867,204,50109
5868,61,50110
5869,34,50111
5870,67,50119
5871,47,50122
5872,198,50124
5873,180,50126
5874,179,50127
5875,87,50129
5876,10,50131
5877,24,50132
5878,94,50134
5879,68,50142
5880,204,50143
5881,94,50145
5882,18,50147
5883,179,50148
5884,0,50151
5885,209,50152
5886,28,50155
5887,82,50159
5888,92,18915
5889,47,18918
5890,204,18948
5891,0,18951
5892,71,18955
5893,70,18962
5894,109,18967
5895,55,18972
5896,66,18992
5897,123,19002
5898,118,19025
5899,204,19046
5900,12,19050
5901,114,19059
5902,217,19060
5903,62,19088
5904,46,19102
5905,76,19115
5906,3,19118
5907,117,19136
5908,179,19139
5909,143,19144
5910,134,19163
5911,47,19175
5912,128,19189
5913,106,19197
5914,94,19213
5915,65,19216
5916,220,19226
5917,92,19232
5918,34,19233
5919,214,19245
5920,16,40488
5921,140,40490
5922,204,40493
5923,216,40497
5924,7,40502
5925,43,40511
5926,35,40517
5927,209,40518
5928,73,40520
5929,45,40525
5930,34,40531
5931,28,40532
5932,61,40537
5933,104,40538
5934,45,40540
5935,82,40542
5936,130,40543
5937,220,40546
5938,47,40548
5939,208,40550
5940,131,40552
5941,106,40556
5942,204,40559
5943,207,40564
5944,60,40566
5945,100,40570
5946,207,40579
5947,123,40584
5948,99,40585
5949,119,40586
5950,25,40594
5951,198,40601
5952,100,3072
5953,93,3093
5954,58,3099
5955,133,3163
5956,24,3173
5957,141,3182
5958,44,3183
5959,173,3196
5960,119,3229
5961,135,3234
5962,55,3235
5963,106,3292
5964,91,3303
5965,52,3309
5966,217,3312
5967,104,3353
5968,117,3364
5969,78,3381
5970,52,3382
5971,212,3385
5972,136,3410
5973,87,3426
5974,117,3454
5975,7,3481
5976,96,3505
5977,128,3533
5978,193,3550
5979,71,3558
5980,204,3562
5981,64,3565
5982,53,3571
5983,129,3578
5984,52,36534
5985,98,36539
5986,114,36540
5987,16,36544
5988,208,36553
5989,204,36559
5990,193,36574
5991,137,36576
5992,71,36595
5993,181,36596
5994,121,36599
5995,7,36603
5996,115,36605
5997,87,36606
5998,214,36613
5999,100,36614
6000,0,36625
6001,125,36637
6002,2,36639
6003,77,36649
6004,20,36676
6005,209,36681
6006,36,36689
6007,198,36696
6008,45,36697
6009,69,36700
6010,27,36703
6011,35,36704
6012,207,36705
6013,84,36708
6014,124,36711
6015,41,36719
6016,72,56393
6017,193,56397
6018,71,56398
6019,63,56399
6020,53,56401
6021,202,56403
6022,84,56405
6023,119,56406
6024,207,56407
6025,87,56408
6026,143,56409
6027,16,56411
6028,87,56414
6029,96,56415
6030,75,56417
6031,85,56419
6032,19,56420
6033,0,56421
6034,217,56422
6035,92,56424
6036,70,56425
6037,32,56426
6038,131,56430
6039,208,56433
6040,125,56434
6041,180,56435
6042,34,56436
6043,17,56437
6044,76,56438
6045,84,56439
6046,125,56442
6047,6,56445
6048,34,17400
6049,131,17433
6050,79,17585
6051,94,17605
6052,70,17608
6053,94,17648
6054,106,17660
6055,29,17690
6056,209,17718
6057,116,17731
6058,133,17776
6059,66,17822
6060,91,17842
6061,27,17850
6062,70,17864
6063,64,17941
6064,140,17954
6065,13,17956
6066,6,18022
6067,107,18116
6068,103,18179
6069,33,18203
6070,103,18284
6071,90,18399
6072,124,18405
6073,134,18563
6074,75,18585
6075,119,18638
6076,123,18645
6077,82,18650
6078,121,18705
6079,136,18784
6080,55,2507
6081,78,2567
6082,7,2574
6083,35,2576
6084,213,2589
6085,207,2644
6086,4,2670
6087,17,2674
6088,217,2746
6089,47,2805
6090,140,2819
6091,100,2845
6092,135,2856
6093,126,2857
6094,208,2913
6095,101,2920
6096,61,2949
6097,0,2974
6098,78,2985
6099,4,3004
6100,23,3022
6101,107,3027
6102,61,3028
6103,4,3038
6104,23,3083
6105,93,3088
6106,135,3113
6107,217,3305
6108,68,3324
6109,204,3388
6110,53,3535
6111,81,3701
6112,127,39930
6113,137,39936
6114,217,39939
6115,179,39940
6116,98,39943
6117,208,39944
6118,6,39952
6119,77,39955
6120,198,39957
6121,91,39971
6122,20,39973
6123,82,39974
6124,9,39981
6125,52,39982
6126,204,39983
6127,28,39987
6128,31,39989
6129,65,39994
6130,214,40004
6131,139,40005
6132,84,40008
6133,118,40009
6134,72,40013
6135,34,40030
6136,8,40037
6137,198,40039
6138,185,40043
6139,13,40045
6140,195,40046
6141,77,40048
6142,47,40052
6143,120,40057
6144,67,4414
6145,135,4452
6146,24,4538
6147,79,4562
6148,98,4584
6149,58,4650
6150,20,4741
6151,87,4806
6152,6,4830
6153,212,4833
6154,179,4918
6155,71,5128
6156,141,5315
6157,87,5316
6158,87,5396
6159,81,5445
6160,14,5459
6161,60,5601
6162,35,6207
6163,101,6458
6164,73,6936
6165,0,6984
6166,220,9823
6167,204,10063
6168,137,11151
6169,128,12504
6170,123,12514
6171,77,13281
6172,126,13908
6173,16,14084
6174,107,14335
6175,62,14738
6176,66,29851
6177,139,29869
6178,49,29871
6179,209,29875
6180,173,29877
6181,118,29885
6182,82,29894
6183,111,29898
6184,62,29899
6185,133,29903
6186,198,29905
6187,220,29908
6188,2,29913
6189,134,29917
6190,65,29921
6191,62,29927
6192,84,29941
6193,4,29956
6194,111,29962
6195,82,29964
6196,116,29965
6197,61,29969
6198,11,29981
6199,114,29988
6200,76,29989
6201,100,30000
6202,87,30013
6203,76,30021
6204,179,30022
6205,8,30023
6206,12,30025
6207,127,30029
6208,99,9009
6209,14,9012
6210,87,9025
6211,119,9030
6212,59,9031
6213,72,9034
6214,35,9038
6215,49,9039
6216,4,9042
6217,68,9048
6218,92,9053
6219,104,9054
6220,35,9061
6221,21,9066
6222,84,9075
6223,116,9081
6224,32,9084
6225,34,9088
6226,27,9112
6227,70,9122
6228,52,9125
6229,0,9131
6230,220,9135
6231,69,9138
6232,98,9142
6233,135,9143
6234,72,9154
6235,23,9155
6236,128,9161
6237,8,9178
6238,7,9179
6239,100,9222
6240,88,46245
6241,40,46246
6242,42,46248
6243,100,46250
6244,96,46251
6245,17,46252
6246,217,46254
6247,55,46263
6248,59,46264
6249,209,46271
6250,68,46276
6251,87,46277
6252,92,46281
6253,116,46282
6254,9,46286
6255,109,46287
6256,57,46302
6257,8,46307
6258,49,46312
6259,97,46315
6260,88,46316
6261,106,46320
6262,214,46321
6263,64,46323
6264,13,46327
6265,44,46328
6266,47,46330
6267,123,46331
6268,121,46338
6269,98,46341
6270,209,46342
6271,52,46343
6272,91,41501
6273,81,41502
6274,213,41518
6275,1,41525
6276,173,41529
6277,49,41531
6278,0,41532
6279,106,41534
6280,31,41542
6281,34,41548
6282,58,41569
6283,87,41570
6284,84,41571
6285,113,41578
6286,19,41581
6287,108,41583
6288,81,41587
6289,75,41590
6290,73,41595
6291,77,41599
6292,26,41603
6293,193,41606
6294,71,41615
6295,23,41617
6296,47,41619
6297,61,41624
6298,212,41628
6299,120,41636
6300,213,41640
6301,53,41644
6302,58,41645
6303,62,41649
6304,17,46540
6305,29,46545
6306,128,46546
6307,43,46547
6308,47,46549
6309,128,46550
6310,43,46553
6311,81,46555
6312,163,46562
6313,6,46563
6314,118,46564
6315,155,46567
6316,73,46571
6317,76,46572
6318,113,46575
6319,187,46577
6320,113,46578
6321,133,46581
6322,128,46582
6323,107,46583
6324,208,46584
6325,41,46585
6326,70,46591
6327,45,46593
6328,209,46597
6329,104,46603
6330,24,46604
6331,133,46605
6332,112,46608
6333,69,46612
6334,35,46622
6335,208,46624
6336,24,29856
6337,70,29861
6338,193,29862
6339,73,29863
6340,0,29864
6341,76,29876
6342,107,29879
6343,34,29891
6344,120,29892
6345,55,29893
6346,141,29904
6347,3,29912
6348,90,29929
6349,139,29930
6350,91,29944
6351,32,29973
6352,119,29978
6353,163,29979
6354,127,29984
6355,107,29993
6356,28,30019
6357,2,30028
6358,28,30035
6359,60,30040
6360,81,30041
6361,83,30042
6362,117,30047
6363,75,30065
6364,158,30075
6365,136,30082
6366,139,30090
6367,7,30096
6368,70,14438
6369,24,14456
6370,64,14498
6371,49,14502
6372,117,14538
6373,121,14542
6374,109,14555
6375,26,14612
6376,58,14645
6377,94,14666
6378,3,14692
6379,181,14707
6380,52,14756
6381,78,14769
6382,53,14772
6383,106,14794
6384,213,14803
6385,47,14880
6386,78,14886
6387,10,14928
6388,94,14929
6389,217,14939
6390,204,14953
6391,207,14959
6392,124,14968
6393,173,14990
6394,97,14999
6395,109,15004
6396,45,15055
6397,104,15059
6398,198,15116
6399,103,15140
6400,87,9314
6401,7,9319
6402,64,9326
6403,8,9336
6404,38,9350
6405,198,9387
6406,8,9464
6407,220,9528
6408,52,9556
6409,204,9593
6410,24,9646
6411,70,9658
6412,120,9693
6413,40,9731
6414,45,9736
6415,94,9768
6416,59,9789
6417,112,9809
6418,73,9826
6419,36,9828
6420,124,9838
6421,47,9843
6422,28,9851
6423,8,9882
6424,125,9891
6425,207,9927
6426,41,9939
6427,77,9941
6428,138,9959
6429,204,9963
6430,29,9983
6431,104,9998
6432,216,28239
6433,76,28243
6434,68,28248
6435,181,28252
6436,98,28255
6437,131,28256
6438,167,28260
6439,193,28273
6440,64,28276
6441,62,28283
6442,73,28285
6443,141,28286
6444,21,28287
6445,35,28288
6446,27,28298
6447,193,28303
6448,143,28304
6449,55,28314
6450,137,28323
6451,68,28333
6452,213,28336
6453,114,28337
6454,12,28343
6455,43,28346
6456,220,28354
6457,55,28357
6458,41,28359
6459,30,28361
6460,65,28363
6461,8,28365
6462,185,28373
6463,137,28376
6464,110,38065
6465,84,38068
6466,209,38073
6467,13,38083
6468,204,38089
6469,116,38090
6470,41,38112
6471,98,38118
6472,78,38119
6473,30,38120
6474,204,38122
6475,133,38147
6476,35,38167
6477,61,38189
6478,31,38201
6479,20,38202
6480,127,38205
6481,123,38206
6482,58,38208
6483,26,38213
6484,41,38234
6485,23,38240
6486,125,38243
6487,9,38249
6488,104,38250
6489,65,38255
6490,62,38257
6491,65,38258
6492,124,38259
6493,133,38265
6494,212,38266
6495,207,38277
6496,39,266
6497,35,270
6498,100,282
6499,38,285
6500,180,298
6501,214,312
6502,139,397
6503,115,405
6504,12,414
6505,71,443
6506,35,473
6507,4,490
6508,220,503
6509,120,515
6510,98,516
6511,60,527
6512,86,543
6513,137,581
6514,140,602
6515,14,605
6516,204,683
6517,125,684
6518,26,728
6519,127,764
6520,6,768
6521,34,773
6522,0,784
6523,3,824
6524,7,840
6525,61,856
6526,46,859
6527,126,864
6528,125,43670
6529,118,43672
6530,48,43674
6531,212,43678
6532,208,43686
6533,70,43696
6534,100,43701
6535,28,43704
6536,13,43708
6537,114,43723
6538,104,43727
6539,195,43729
6540,67,43734
6541,35,43736
6542,213,43738
6543,209,43740
6544,4,43742
6545,131,43743
6546,22,43746
6547,128,43748
6548,179,43752
6549,41,43756
6550,27,43759
6551,220,43762
6552,139,43763
6553,52,43764
6554,70,43767
6555,79,43776
6556,204,43777
6557,132,43779
6558,114,43780
6559,116,43785
6560,58,33074
6561,50,33078
6562,185,33082
6563,58,33100
6564,70,33106
6565,198,33116
6566,26,33128
6567,213,33133
6568,8,33135
6569,35,33138
6570,62,33146
6571,84,33148
6572,27,33150
6573,61,33152
6574,94,33157
6575,207,33164
6576,13,33179
6577,198,33188
6578,13,33190
6579,47,33197
6580,43,33199
6581,4,33206
6582,9,33212
6583,204,33226
6584,109,33236
6585,27,33255
6586,220,33276
6587,30,33279
6588,217,33291
6589,76,33294
6590,120,33295
6591,109,33297
6592,46,44727
6593,27,44729
6594,108,44730
6595,211,44731
6596,43,44739
6597,209,44742
6598,44,44745
6599,179,44746
6600,143,44749
6601,12,44752
6602,99,44757
6603,119,44767
6604,104,44770
6605,198,44777
6606,136,44778
6607,97,44779
6608,109,44784
6609,55,44788
6610,87,44791
6611,79,44796
6612,68,44799
6613,193,44803
6614,120,44811
6615,213,44813
6616,124,44816
6617,38,44819
6618,127,44821
6619,99,44824
6620,185,44828
6621,12,44829
6622,42,44830
6623,101,44833
6624,207,14305
6625,117,14344
6626,21,14350
6627,78,14352
6628,220,14377
6629,72,14386
6630,94,14409
6631,70,14411
6632,64,14458
6633,135,14460
6634,76,14462
6635,107,14468
6636,19,14469
6637,107,14596
6638,82,14730
6639,94,14741
6640,111,14775
6641,0,14849
6642,217,14876
6643,217,14899
6644,99,14924
6645,217,14944
6646,158,15006
6647,69,15064
6648,131,15075
6649,134,15083
6650,61,15098
6651,63,15107
6652,7,15130
6653,212,15249
6654,62,15258
6655,140,15273
6656,70,50629
6657,94,50630
6658,124,50632
6659,12,50635
6660,28,50636
6661,118,50637
6662,126,50638
6663,137,50639
6664,84,50640
6665,116,50641
6666,58,50645
6667,24,50648
6668,21,50652
6669,76,50654
6670,19,50658
6671,87,50660
6672,17,50665
6673,141,50667
6674,42,50670
6675,13,50672
6676,193,50673
6677,128,50674
6678,22,50677
6679,116,50679
6680,58,50680
6681,113,50681
6682,70,50682
6683,216,50686
6684,108,50687
6685,33,50690
6686,9,50691
6687,0,50693
6688,51,12437
6689,134,12525
6690,115,12588
6691,163,12603
6692,204,12613
6693,35,12629
6694,3,12656
6695,83,12657
6696,59,12680
6697,94,12697
6698,91,12709
6699,139,12730
6700,70,12775
6701,35,12778
6702,209,12804
6703,14,12835
6704,7,12861
6705,179,12875
6706,108,12880
6707,47,12944
6708,68,12951
6709,49,12953
6710,68,12979
6711,109,13018
6712,46,13032
6713,120,13064
6714,126,13098
6715,67,13173
6716,111,13254
6717,216,13288
6718,125,13313
6719,8,13351
6720,73,55964
6721,47,55965
6722,69,55968
6723,51,55970
6724,89,55971
6725,109,55974
6726,87,55975
6727,41,55976
6728,207,55977
6729,11,55978
6730,8,55980
6731,61,55983
6732,69,55985
6733,135,55986
6734,20,55987
6735,52,55988
6736,124,55989
6737,88,55998
6738,70,56001
6739,29,56003
6740,46,56004
6741,55,56008
6742,25,56010
6743,55,56011
6744,11,56013
6745,29,56014
6746,6,56015
6747,198,56023
6748,111,56024
6749,33,56027
6750,41,56028
6751,55,56029
6752,141,4703
6753,97,4713
6754,34,4769
6755,134,4790
6756,70,4825
6757,141,4841
6758,83,4870
6759,17,4885
6760,107,4929
6761,120,4959
6762,137,4961
6763,91,4974
6764,220,4981
6765,181,5017
6766,135,5047
6767,220,5057
6768,8,5063
6769,38,5066
6770,155,5091
6771,132,5104
6772,134,5132
6773,121,5135
6774,70,5144
6775,213,5145
6776,27,5148
6777,138,5150
6778,1,5170
6779,70,5173
6780,32,5196
6781,99,5200
6782,51,5218
6783,21,5222
6784,120,4246
6785,4,4252
6786,76,4288
6787,99,4302
6788,52,4317
6789,52,4322
6790,21,4346
6791,118,4366
6792,70,4394
6793,217,4408
6794,38,4418
6795,113,4433
6796,109,4444
6797,98,4481
6798,137,4496
6799,185,4531
6800,81,4574
6801,72,4580
6802,14,4586
6803,108,4628
6804,65,4633
6805,51,4639
6806,92,4648
6807,198,4661
6808,116,4662
6809,118,4699
6810,58,4701
6811,59,4702
6812,55,4707
6813,21,4710
6814,21,4729
6815,217,4782
6816,195,47844
6817,213,47847
6818,8,47849
6819,106,47851
6820,82,47858
6821,52,47859
6822,207,47861
6823,2,47863
6824,128,47868
6825,29,47869
6826,66,47876
6827,24,47880
6828,211,47882
6829,84,47883
6830,8,47885
6831,72,47892
6832,62,47900
6833,85,47901
6834,64,47902
6835,8,47904
6836,156,47909
6837,68,47912
6838,135,47915
6839,92,47916
6840,8,47917
6841,198,47919
6842,37,47922
6843,208,47925
6844,60,47932
6845,119,47936
6846,173,47937
6847,207,47938
6848,204,29628
6849,35,29639
6850,90,29644
6851,179,29665
6852,80,29671
6853,24,29676
6854,59,29680
6855,94,29688
6856,217,29715
6857,72,29716
6858,84,29717
6859,130,29725
6860,3,29729
6861,195,29731
6862,62,29734
6863,87,29756
6864,20,29758
6865,4,29760
6866,23,29761
6867,97,29779
6868,40,29780
6869,16,29796
6870,2,29873
6871,98,29926
6872,1,29932
6873,123,29955
6874,109,29975
6875,80,29976
6876,19,29977
6877,181,29983
6878,220,29987
6879,128,30033
6880,65,36339
6881,111,36350
6882,106,36355
6883,127,36410
6884,76,36411
6885,111,36421
6886,208,36431
6887,19,36443
6888,78,36448
6889,64,36451
6890,90,36466
6891,207,36475
6892,204,36485
6893,131,36488
6894,134,36495
6895,108,36521
6896,173,36546
6897,131,36597
6898,84,36616
6899,70,36617
6900,193,36620
6901,9,36628
6902,217,36634
6903,6,36642
6904,180,36654
6905,3,36712
6906,27,36735
6907,24,36754
6908,88,36758
6909,217,36762
6910,27,36773
6911,204,36776
6912,78,54926
6913,12,54927
6914,173,54928
6915,9,54931
6916,71,54933
6917,32,54934
6918,84,54935
6919,68,54937
6920,129,54939
6921,195,54950
6922,167,54954
6923,71,54955
6924,53,54956
6925,127,54957
6926,41,54958
6927,81,54961
6928,204,54963
6929,193,54967
6930,104,54968
6931,179,54973
6932,72,54974
6933,71,54978
6934,43,54981
6935,12,54985
6936,214,54986
6937,118,54987
6938,127,54989
6939,94,54995
6940,41,54997
6941,107,54998
6942,79,55001
6943,16,55002
6944,58,8749
6945,195,8756
6946,34,8778
6947,69,8788
6948,119,8790
6949,137,8795
6950,20,8802
6951,65,8819
6952,2,8844
6953,0,8845
6954,143,8851
6955,73,8873
6956,124,8888
6957,70,8891
6958,119,8893
6959,79,8898
6960,13,8904
6961,65,8910
6962,58,8924
6963,204,8927
6964,3,8940
6965,124,8942
6966,41,8950
6967,113,8954
6968,87,8955
6969,117,8961
6970,92,8962
6971,195,8978
6972,8,8987
6973,173,8999
6974,32,9019
6975,53,9023
6976,59,11129
6977,220,793
6978,98,986
6979,69,1043
6980,83,1226
6981,214,1329
6982,208,1401
6983,135,1446
6984,38,1743
6985,21,1758
6986,9,1897
6987,216,2036
6988,16,3783
6989,13,3791
6990,68,3801
6991,140,4044
6992,111,4256
6993,21,4624
6994,59,5129
6995,138,11569
6996,35,11659
6997,99,9
6998,163,27
6999,111,84
7000,87,103
7001,94,140
7002,12,239
7003,81,705
7004,101,1162
7005,2,1215
7006,217,1216
7007,63,1276
7008,58,51906
7009,180,51910
7010,49,51920
7011,9,51921
7012,49,51923
7013,73,51929
7014,35,51938
7015,129,51939
7016,61,51940
7017,73,51943
7018,38,51955
7019,97,51956
7020,7,51969
7021,91,51982
7022,79,51984
7023,72,51985
7024,179,51988
7025,57,51989
7026,138,51991
7027,27,51992
7028,87,51993
7029,220,51995
7030,141,51997
7031,52,52000
7032,73,52001
7033,135,52013
7034,16,52022
7035,87,52024
7036,208,52026
7037,209,52027
7038,3,52035
7039,214,52044
7040,209,39498
7041,104,39508
7042,31,39509
7043,83,39518
7044,20,39519
7045,158,39534
7046,134,39535
7047,208,39540
7048,129,39545
7049,34,39550
7050,125,39553
7051,91,39554
7052,62,39557
7053,78,39559
7054,114,39560
7055,42,39567
7056,34,39572
7057,198,39573
7058,86,39589
7059,3,39594
7060,179,39597
7061,124,39599
7062,181,39600
7063,72,39601
7064,204,39607
7065,208,39610
7066,0,39616
7067,11,39618
7068,30,39620
7069,22,39627
7070,118,39628
7071,128,39631
7072,198,32562
7073,198,32567
7074,81,32574
7075,167,32575
7076,42,32582
7077,71,32583
7078,12,32584
7079,108,32588
7080,49,32597
7081,41,32598
7082,97,32599
7083,9,32601
7084,47,32606
7085,198,32617
7086,179,32627
7087,47,32641
7088,70,32652
7089,135,32657
7090,61,32659
7091,73,32660
7092,69,32679
7093,43,32689
7094,59,32699
7095,7,32721
7096,52,32726
7097,16,32731
7098,99,32738
7099,41,32739
7100,212,32748
7101,35,32749
7102,82,32750
7103,68,32764
7104,135,1963
7105,137,2170
7106,82,2208
7107,20,2209
7108,35,2370
7109,8,2608
7110,34,2705
7111,68,2815
7112,24,2863
7113,35,2871
7114,31,2874
7115,111,2969
7116,3,3016
7117,81,3080
7118,35,3166
7119,167,3175
7120,81,3219
7121,23,3263
7122,84,3291
7123,131,3408
7124,3,3477
7125,91,3546
7126,137,3591
7127,207,3595
7128,63,3621
7129,118,3672
7130,173,3685
7131,187,3690
7132,99,3818
7133,128,3869
7134,35,3873
7135,209,3907
7136,89,19995
7137,130,20541
7138,136,20706
7139,16,20787
7140,106,20831
7141,220,21690
7142,132,21735
7143,198,22164
7144,87,33347
7145,111,34791
7146,167,92
7147,98,111
7148,4,113
7149,207,141
7150,23,154
7151,83,207
7152,137,234
7153,82,256
7154,118,269
7155,35,287
7156,67,348
7157,107,393
7158,94,430
7159,128,444
7160,125,453
7161,78,454
7162,0,470
7163,41,548
7164,62,561
7165,9,574
7166,44,587
7167,115,617
7168,135,16740
7169,64,16750
7170,36,16753
7171,57,16771
7172,68,16776
7173,17,16797
7174,110,16819
7175,104,16861
7176,93,16871
7177,58,16884
7178,109,16933
7179,13,16944
7180,13,16952
7181,71,16986
7182,198,17009
7183,106,17017
7184,71,17030
7185,139,17037
7186,116,17055
7187,100,17077
7188,19,17114
7189,107,17124
7190,0,17134
7191,95,17154
7192,48,17218
7193,9,17257
7194,98,17265
7195,209,17295
7196,78,17308
7197,94,17343
7198,1,17404
7199,20,17431
7200,213,40479
7201,64,40491
7202,83,40499
7203,81,40516
7204,42,40522
7205,68,40527
7206,7,40530
7207,26,40535
7208,217,40539
7209,7,40541
7210,138,40573
7211,167,40582
7212,181,40588
7213,116,40590
7214,16,40598
7215,180,40603
7216,100,40604
7217,53,40617
7218,65,40624
7219,111,40625
7220,79,40627
7221,100,40646
7222,3,40674
7223,123,40677
7224,120,40682
7225,193,40700
7226,114,40707
7227,217,40716
7228,73,40721
7229,133,40722
7230,109,40744
7231,47,40759
7232,81,50243
7233,88,50244
7234,64,50248
7235,106,50252
7236,109,50253
7237,217,50254
7238,12,50256
7239,76,50258
7240,115,50260
7241,130,50261
7242,2,50262
7243,63,50264
7244,99,50265
7245,138,50266
7246,13,50268
7247,167,50271
7248,20,50272
7249,56,50273
7250,20,50275
7251,70,50277
7252,37,50281
7253,121,50282
7254,98,50286
7255,34,50287
7256,79,50288
7257,173,50289
7258,34,50293
7259,92,50296
7260,70,50297
7261,209,50302
7262,106,50305
7263,167,50310
7264,137,49349
7265,58,49353
7266,0,49354
7267,0,49355
7268,53,49356
7269,44,49358
7270,16,49359
7271,173,49363
7272,26,49366
7273,204,49373
7274,141,49377
7275,68,49379
7276,217,49381
7277,179,49382
7278,137,49384
7279,203,49386
7280,82,49396
7281,66,49402
7282,133,49407
7283,116,49409
7284,47,49414
7285,9,49420
7286,100,49432
7287,7,49438
7288,99,49445
7289,97,49449
7290,82,49451
7291,14,49455
7292,17,49457
7293,59,49459
7294,88,49460
7295,112,49461
7296,139,3583
7297,9,3585
7298,216,3614
7299,51,3617
7300,140,3631
7301,79,3639
7302,71,3655
7303,84,3670
7304,107,3683
7305,52,3689
7306,87,3709
7307,51,3726
7308,13,3748
7309,78,3751
7310,41,3760
7311,3,3793
7312,173,3797
7313,124,3826
7314,46,3833
7315,69,3846
7316,214,3867
7317,173,3868
7318,110,3887
7319,38,3895
7320,204,3906
7321,108,3924
7322,104,3938
7323,66,3943
7324,12,3986
7325,0,3990
7326,94,4002
7327,208,4020
7328,35,3587
7329,63,3657
7330,220,3682
7331,26,3692
7332,20,3703
7333,40,3735
7334,212,3737
7335,64,3746
7336,47,3747
7337,2,3750
7338,91,3795
7339,57,3855
7340,68,3857
7341,57,3883
7342,98,3913
7343,9,3919
7344,8,3929
7345,140,3944
7346,104,3961
7347,27,4015
7348,207,4034
7349,35,4035
7350,61,4037
7351,63,4091
7352,68,4137
7353,36,4147
7354,135,4178
7355,4,4191
7356,12,4223
7357,0,4237
7358,87,4241
7359,220,4308
7360,123,30974
7361,123,30996
7362,54,31087
7363,32,31347
7364,34,31813
7365,173,31949
7366,4,31974
7367,78,32063
7368,113,32277
7369,36,32298
7370,4,32310
7371,47,32314
7372,70,32434
7373,34,32483
7374,46,32500
7375,98,32516
7376,114,32563
7377,47,32624
7378,67,32670
7379,99,32716
7380,131,32754
7381,20,32755
7382,87,32790
7383,0,32800
7384,137,32810
7385,70,32835
7386,53,32836
7387,60,32847
7388,44,32869
7389,35,32874
7390,17,32889
7391,173,32933
7392,107,21139
7393,99,21208
7394,123,21222
7395,57,21224
7396,3,21225
7397,220,21233
7398,121,21266
7399,104,21293
7400,163,21323
7401,139,21360
7402,137,21361
7403,76,21402
7404,19,21403
7405,63,21455
7406,71,21459
7407,217,21508
7408,136,21526
7409,220,21532
7410,16,21562
7411,212,21597
7412,79,21644
7413,143,21657
7414,204,21686
7415,213,21697
7416,107,21732
7417,179,21737
7418,109,21747
7419,61,21765
7420,64,21775
7421,94,21779
7422,71,21840
7423,61,21874
7424,54,15744
7425,111,15767
7426,35,15768
7427,73,15773
7428,68,15792
7429,97,15796
7430,109,15803
7431,82,15804
7432,77,15813
7433,143,15847
7434,13,15848
7435,106,15851
7436,45,15867
7437,115,15893
7438,128,15897
7439,44,15899
7440,216,15929
7441,124,15967
7442,111,15968
7443,139,15980
7444,38,15984
7445,114,16000
7446,108,16003
7447,12,16006
7448,71,16010
7449,35,16018
7450,180,16043
7451,120,16066
7452,76,16076
7453,193,16084
7454,40,16113
7455,62,16120
7456,138,55444
7457,37,55446
7458,19,55451
7459,9,55453
7460,179,55454
7461,27,55455
7462,91,55458
7463,118,55459
7464,116,55461
7465,135,55463
7466,217,55470
7467,208,55472
7468,135,55475
7469,124,55478
7470,107,55479
7471,193,55481
7472,107,55483
7473,208,55484
7474,38,55488
7475,44,55491
7476,213,55493
7477,125,55496
7478,4,55502
7479,42,55503
7480,198,55507
7481,202,55517
7482,75,55519
7483,12,55520
7484,54,55522
7485,21,55526
7486,212,55528
7487,208,55529
7488,130,59803
7489,55,59804
7490,67,59806
7491,8,59807
7492,106,59808
7493,158,59809
7494,84,59810
7495,53,59811
7496,131,59814
7497,217,59816
7498,140,59817
7499,204,59819
7500,198,59820
7501,135,59824
7502,204,59828
7503,117,59829
7504,30,59831
7505,107,59832
7506,195,59833
7507,107,59834
7508,220,59835
7509,220,59836
7510,106,59837
7511,91,59839
7512,59,59841
7513,94,59842
7514,101,59843
7515,62,59844
7516,107,59845
7517,181,59846
7518,16,59847
7519,108,59850
7520,71,17679
7521,8,17694
7522,82,17698
7523,128,17716
7524,99,17764
7525,13,17766
7526,55,17770
7527,81,17779
7528,78,17786
7529,132,17789
7530,125,17794
7531,204,17803
7532,110,17808
7533,207,17816
7534,109,17826
7535,30,17841
7536,75,17843
7537,70,17857
7538,217,17866
7539,85,17883
7540,17,17889
7541,99,17891
7542,208,17893
7543,17,17960
7544,92,17994
7545,118,17999
7546,37,18002
7547,98,18005
7548,208,18051
7549,27,18059
7550,109,18077
7551,72,18130
7552,34,21724
7553,81,21748
7554,8,21762
7555,73,21763
7556,55,21780
7557,15,21783
7558,8,21805
7559,11,21809
7560,214,21816
7561,79,21820
7562,132,21846
7563,113,21852
7564,193,21853
7565,179,21856
7566,134,21859
7567,41,21863
7568,128,21884
7569,91,21889
7570,116,21943
7571,58,21944
7572,121,21945
7573,83,21956
7574,173,21977
7575,213,21979
7576,193,21992
7577,100,21999
7578,129,22002
7579,18,22018
7580,98,22024
7581,93,22043
7582,108,22094
7583,87,22096
7584,217,24351
7585,41,24357
7586,128,24369
7587,195,24373
7588,43,24389
7589,120,24392
7590,136,24406
7591,6,24416
7592,92,24418
7593,58,24454
7594,85,24458
7595,127,24464
7596,91,24478
7597,179,24492
7598,81,24525
7599,35,24540
7600,139,24544
7601,193,24549
7602,137,24569
7603,52,24577
7604,45,24612
7605,112,24616
7606,130,24655
7607,64,24658
7608,110,24676
7609,217,24686
7610,47,24694
7611,84,24725
7612,220,24730
7613,208,24731
7614,99,24738
7615,19,24771
7616,35,54552
7617,96,54559
7618,4,54564
7619,193,54565
7620,45,54567
7621,62,54568
7622,76,54569
7623,45,54570
7624,24,54571
7625,71,54572
7626,111,54577
7627,42,54581
7628,84,54583
7629,110,54584
7630,128,54586
7631,94,54589
7632,72,54592
7633,76,54602
7634,82,54605
7635,87,54607
7636,52,54611
7637,14,54614
7638,198,54616
7639,93,54618
7640,209,54619
7641,204,54621
7642,55,54622
7643,214,54628
7644,119,54629
7645,76,54630
7646,84,54632
7647,4,54633
7648,108,21989
7649,70,21990
7650,202,21991
7651,20,22000
7652,94,22011
7653,12,22026
7654,220,22031
7655,20,22032
7656,103,22059
7657,7,22060
7658,217,22066
7659,193,22067
7660,106,22087
7661,211,22092
7662,34,22122
7663,198,22132
7664,35,22134
7665,64,22139
7666,78,22163
7667,40,22177
7668,46,22184
7669,46,22197
7670,35,22207
7671,35,22209
7672,140,22224
7673,70,22235
7674,65,22248
7675,116,22249
7676,121,22253
7677,35,22255
7678,37,22262
7679,70,22265
7680,40,10564
7681,82,10567
7682,135,10671
7683,52,10673
7684,213,10689
7685,40,10706
7686,217,10807
7687,99,10828
7688,2,10893
7689,20,10895
7690,47,10909
7691,181,10948
7692,53,10993
7693,138,11034
7694,20,11104
7695,59,11348
7696,126,11409
7697,55,11462
7698,68,11599
7699,155,11605
7700,106,11667
7701,23,11679
7702,31,11717
7703,123,11734
7704,128,11767
7705,11,12051
7706,1,12140
7707,108,12203
7708,108,12238
7709,46,12375
7710,204,12390
7711,217,12570
7712,204,36710
7713,35,36716
7714,78,36722
7715,0,36726
7716,87,36730
7717,106,36731
7718,78,36736
7719,4,36738
7720,12,36740
7721,79,36741
7722,87,36743
7723,59,36744
7724,209,36752
7725,214,36755
7726,101,36756
7727,6,36760
7728,116,36772
7729,119,36774
7730,59,36781
7731,107,36802
7732,16,36804
7733,94,36805
7734,113,36812
7735,49,36815
7736,213,36817
7737,9,36820
7738,84,36825
7739,64,36834
7740,204,36838
7741,101,36846
7742,101,36850
7743,204,36856
7744,97,56295
7745,23,56302
7746,42,56316
7747,73,56317
7748,53,56335
7749,64,56345
7750,60,56346
7751,26,56352
7752,111,56388
7753,108,56410
7754,58,56413
7755,40,56416
7756,62,56452
7757,56,56463
7758,127,56478
7759,129,56497
7760,138,56506
7761,113,56513
7762,6,56521
7763,91,56531
7764,19,56533
7765,8,56544
7766,107,56548
7767,73,56578
7768,51,56581
7769,208,56584
7770,208,56602
7771,20,56615
7772,60,56618
7773,34,56637
7774,63,56645
7775,173,56656
7776,47,44411
7777,158,44430
7778,42,44442
7779,68,44445
7780,14,44462
7781,16,44484
7782,217,44493
7783,35,44516
7784,65,44519
7785,204,44525
7786,134,44530
7787,79,44532
7788,92,44577
7789,104,44585
7790,118,44600
7791,207,44602
7792,213,44605
7793,43,44618
7794,140,44625
7795,65,44627
7796,113,44652
7797,193,44679
7798,193,44807
7799,6,44820
7800,4,44825
7801,110,44835
7802,32,44840
7803,77,44847
7804,140,44854
7805,0,44889
7806,113,44916
7807,64,44928
7808,64,10462
7809,140,10466
7810,193,10470
7811,34,10472
7812,107,10493
7813,45,10494
7814,63,10506
7815,179,10521
7816,116,10550
7817,111,10554
7818,73,10558
7819,95,10601
7820,71,10614
7821,141,10626
7822,70,10639
7823,136,10647
7824,173,10662
7825,42,10666
7826,20,10667
7827,92,10672
7828,40,10681
7829,91,10698
7830,204,10704
7831,32,10720
7832,140,10721
7833,20,10732
7834,32,10733
7835,71,10745
7836,41,10790
7837,73,10796
7838,9,10829
7839,118,10833
7840,109,46063
7841,70,46065
7842,43,46079
7843,204,46080
7844,143,46082
7845,21,46089
7846,130,46091
7847,99,46093
7848,77,46096
7849,17,46103
7850,127,46105
7851,116,46109
7852,204,46114
7853,29,46124
7854,193,46126
7855,84,46130
7856,111,46135
7857,51,46138
7858,62,46141
7859,52,46156
7860,58,46162
7861,213,46169
7862,130,46171
7863,2,46176
7864,3,46177
7865,32,46179
7866,34,46188
7867,76,46190
7868,37,46198
7869,76,46201
7870,135,46205
7871,181,46209
7872,17,41614
7873,70,41621
7874,7,41622
7875,94,41623
7876,133,41625
7877,88,41662
7878,213,41671
7879,8,41683
7880,195,41688
7881,60,41695
7882,14,41700
7883,217,41701
7884,41,41704
7885,212,41713
7886,131,41721
7887,82,41722
7888,27,41723
7889,116,41746
7890,108,41754
7891,24,41756
7892,104,41760
7893,8,41763
7894,104,41765
7895,8,41767
7896,130,41768
7897,204,41773
7898,20,41777
7899,131,41785
7900,24,41789
7901,209,41795
7902,0,41796
7903,217,41799
7904,204,55333
7905,119,55337
7906,58,55338
7907,130,55339
7908,173,55342
7909,115,55347
7910,131,55351
7911,88,55358
7912,4,55360
7913,208,55362
7914,66,55363
7915,61,55366
7916,104,55367
7917,133,55368
7918,20,55370
7919,109,55371
7920,106,55373
7921,45,55375
7922,140,55381
7923,217,55387
7924,214,55391
7925,124,55393
7926,19,55397
7927,23,55400
7928,65,55401
7929,83,55402
7930,89,55404
7931,131,55408
7932,91,55409
7933,68,55410
7934,68,55411
7935,107,55415
7936,81,47498
7937,0,47500
7938,113,47506
7939,76,47513
7940,16,47516
7941,131,47518
7942,35,47530
7943,61,47532
7944,19,47536
7945,88,47538
7946,179,47539
7947,179,47547
7948,24,47555
7949,21,47558
7950,202,47563
7951,204,47575
7952,204,47579
7953,97,47582
7954,42,47585
7955,65,47586
7956,35,47589
7957,127,47592
7958,64,47593
7959,127,47600
7960,87,47602
7961,97,47606
7962,65,47621
7963,135,47622
7964,58,47624
7965,62,47627
7966,143,47636
7967,55,47638
7968,93,33869
7969,108,33904
7970,86,33915
7971,207,33938
7972,128,33948
7973,35,33962
7974,136,33963
7975,173,33979
7976,204,33982
7977,14,33983
7978,90,33985
7979,128,34051
7980,0,34084
7981,62,34097
7982,209,34110
7983,87,34117
7984,62,34167
7985,47,34189
7986,204,34198
7987,71,34215
7988,31,34234
7989,11,34245
7990,208,34251
7991,111,34253
7992,14,34271
7993,20,34289
7994,54,34327
7995,193,34336
7996,13,34347
7997,204,34367
7998,117,34415
7999,19,34416
8000,213,10350
8001,135,10352
8002,68,10386
8003,42,10401
8004,61,10442
8005,44,10448
8006,100,10456
8007,2,10469
8008,198,10474
8009,138,10475
8010,128,10484
8011,140,10499
8012,217,10515
8013,0,10577
8014,20,10616
8015,35,10637
8016,213,10646
8017,61,10651
8018,84,10723
8019,123,10728
8020,198,10817
8021,42,10820
8022,60,10831
8023,26,10848
8024,216,10849
8025,108,10860
8026,7,10873
8027,91,10886
8028,34,10889
8029,138,10898
8030,55,10912
8031,121,10917
8032,94,34757
8033,204,34775
8034,134,34782
8035,85,34801
8036,207,34802
8037,68,34806
8038,193,34819
8039,132,34824
8040,28,34831
8041,12,34832
8042,32,34839
8043,78,34851
8044,108,34853
8045,220,34859
8046,135,34866
8047,139,34874
8048,141,34899
8049,0,34907
8050,101,34913
8051,24,34922
8052,6,34924
8053,27,34927
8054,92,34937
8055,20,34943
8056,17,34948
8057,138,34968
8058,51,34978
8059,136,34979
8060,108,34984
8061,217,34987
8062,42,34991
8063,53,34993
8064,111,21798
8065,217,21821
8066,97,21865
8067,53,21866
8068,70,21867
8069,81,21872
8070,56,21888
8071,124,21890
8072,92,21894
8073,22,21965
8074,137,21974
8075,101,22010
8076,0,22025
8077,135,22038
8078,34,22070
8079,19,22075
8080,126,22081
8081,113,22085
8082,193,22088
8083,63,22090
8084,98,22111
8085,126,22113
8086,73,22138
8087,209,22144
8088,116,22153
8089,193,22159
8090,17,22172
8091,20,22186
8092,49,22189
8093,20,22212
8094,112,22221
8095,217,22234
8096,91,9265
8097,81,9269
8098,216,9271
8099,213,9282
8100,87,9283
8101,111,9286
8102,213,9287
8103,207,9294
8104,97,9302
8105,53,9320
8106,91,9327
8107,216,9328
8108,134,9331
8109,137,9339
8110,167,9344
8111,51,9345
8112,38,9348
8113,6,9354
8114,70,9355
8115,108,9366
8116,41,9373
8117,37,9377
8118,117,9379
8119,208,9382
8120,92,9383
8121,209,9388
8122,34,9404
8123,7,9410
8124,27,9422
8125,35,9428
8126,204,9429
8127,124,9430
8128,217,47646
8129,216,47648
8130,2,47659
8131,86,47665
8132,87,47676
8133,216,47688
8134,109,47705
8135,143,47713
8136,4,47726
8137,34,47732
8138,59,47746
8139,33,47747
8140,134,47749
8141,96,47753
8142,30,47755
8143,180,47763
8144,158,47783
8145,68,47785
8146,90,47790
8147,58,47804
8148,84,47808
8149,29,47813
8150,139,47818
8151,135,47821
8152,22,47829
8153,61,47834
8154,8,47852
8155,131,47853
8156,46,47854
8157,92,47865
8158,132,47873
8159,111,47875
8160,141,21718
8161,118,21725
8162,13,21726
8163,167,21727
8164,109,21733
8165,96,21744
8166,70,21756
8167,4,21758
8168,87,21776
8169,106,21781
8170,124,21792
8171,51,21819
8172,213,21822
8173,140,21826
8174,181,21834
8175,119,21835
8176,63,21843
8177,35,21854
8178,33,21858
8179,209,21875
8180,179,21901
8181,123,21908
8182,106,21919
8183,8,21927
8184,68,21930
8185,65,21954
8186,40,21958
8187,106,21960
8188,68,21967
8189,135,21985
8190,17,21993
8191,127,21996
8192,139,14098
8193,204,14100
8194,3,14107
8195,217,14111
8196,179,14119
8197,14,14126
8198,55,14131
8199,52,14141
8200,98,14142
8201,193,14153
8202,82,14167
8203,73,14175
8204,208,14180
8205,106,14183
8206,128,14200
8207,114,14201
8208,73,14249
8209,4,14257
8210,208,14262
8211,84,14274
8212,118,14275
8213,78,14276
8214,77,14280
8215,82,14294
8216,123,14307
8217,193,14309
8218,119,14313
8219,16,14319
8220,217,14321
8221,113,14337
8222,71,14341
8223,76,14343
8224,96,55092
8225,65,55094
8226,47,55095
8227,179,55097
8228,52,55100
8229,134,55102
8230,53,55103
8231,132,55108
8232,81,55109
8233,135,55113
8234,0,55115
8235,58,55117
8236,131,55118
8237,98,55121
8238,193,55123
8239,193,55127
8240,35,55128
8241,47,55132
8242,128,55136
8243,135,55137
8244,109,55143
8245,212,55144
8246,208,55146
8247,11,55147
8248,128,55149
8249,127,55150
8250,123,55156
8251,71,55163
8252,93,55164
8253,86,55167
8254,195,55170
8255,104,55175
8256,163,37667
8257,20,41368
8258,23,33
8259,81,47
8260,70,52
8261,49,133
8262,70,142
8263,124,203
8264,209,240
8265,49,344
8266,106,365
8267,28,395
8268,173,407
8269,96,426
8270,53,484
8271,46,563
8272,116,570
8273,116,593
8274,91,596
8275,46,601
8276,23,628
8277,53,660
8278,31,673
8279,92,695
8280,70,737
8281,12,739
8282,6,766
8283,47,782
8284,51,799
8285,65,802
8286,119,807
8287,98,815
8288,39,41196
8289,179,41206
8290,136,41207
8291,35,41213
8292,139,41221
8293,19,41227
8294,117,41231
8295,16,41232
8296,64,41233
8297,216,41242
8298,86,41257
8299,137,41261
8300,198,41264
8301,134,41271
8302,217,41277
8303,163,41288
8304,78,41292
8305,44,41293
8306,127,41299
8307,94,41300
8308,127,41303
8309,32,41305
8310,87,41316
8311,204,41319
8312,130,41320
8313,98,41326
8314,204,41330
8315,98,41332
8316,77,41337
8317,77,41338
8318,58,41340
8319,163,41344
8320,0,3707
8321,51,3736
8322,98,3810
8323,104,3830
8324,61,3836
8325,65,3848
8326,117,3863
8327,75,3880
8328,35,3985
8329,129,4018
8330,141,4052
8331,167,4078
8332,155,4087
8333,78,4101
8334,87,4155
8335,33,4161
8336,60,4165
8337,65,4188
8338,100,4193
8339,216,4199
8340,135,4225
8341,100,4277
8342,12,4306
8343,208,4326
8344,124,4330
8345,129,4335
8346,34,4348
8347,68,4413
8348,101,4429
8349,4,4455
8350,9,4476
8351,104,4515
8352,216,37075
8353,137,37085
8354,6,37086
8355,167,37089
8356,24,37094
8357,62,37095
8358,123,37098
8359,10,37108
8360,138,37135
8361,20,37153
8362,87,37195
8363,220,37206
8364,76,37212
8365,40,37246
8366,71,37248
8367,97,37261
8368,67,37264
8369,114,37267
8370,76,37274
8371,26,37276
8372,86,37278
8373,207,37294
8374,126,37302
8375,163,37349
8376,60,37351
8377,217,37355
8378,70,37365
8379,216,37383
8380,13,37394
8381,42,37427
8382,143,37441
8383,20,37467
8384,195,7392
8385,20,7410
8386,49,7411
8387,27,7438
8388,212,7447
8389,13,7471
8390,44,7479
8391,103,7484
8392,198,7487
8393,21,7514
8394,26,7529
8395,23,7539
8396,213,7543
8397,70,7569
8398,107,7586
8399,96,7600
8400,140,7635
8401,3,7665
8402,208,7696
8403,76,7804
8404,62,7831
8405,51,7875
8406,135,7891
8407,53,7908
8408,65,7947
8409,38,7952
8410,53,7994
8411,8,8012
8412,124,8032
8413,100,8063
8414,87,8106
8415,216,8121
8416,137,43149
8417,208,43155
8418,106,43165
8419,21,43209
8420,135,43238
8421,66,43247
8422,87,43254
8423,33,43269
8424,118,43270
8425,138,43271
8426,204,43278
8427,64,43305
8428,155,43313
8429,62,43323
8430,214,43337
8431,54,43342
8432,34,43362
8433,204,43368
8434,72,43370
8435,179,43389
8436,13,43391
8437,72,43395
8438,47,43403
8439,82,43429
8440,217,43430
8441,108,43442
8442,193,43446
8443,9,43503
8444,91,43506
8445,78,43523
8446,180,43534
8447,107,43537
8448,104,2571
8449,76,2580
8450,216,2623
8451,116,2626
8452,12,2628
8453,101,2640
8454,58,2668
8455,214,2672
8456,220,2679
8457,204,2696
8458,38,2697
8459,138,2704
8460,44,2727
8461,13,2764
8462,53,2801
8463,77,2823
8464,0,2858
8465,34,2875
8466,36,2880
8467,134,2885
8468,49,2918
8469,52,2937
8470,207,2941
8471,84,2945
8472,60,2968
8473,15,3003
8474,44,3013
8475,107,3020
8476,68,3025
8477,24,3050
8478,220,3063
8479,72,3067
8480,204,32300
8481,140,32382
8482,16,32556
8483,114,32571
8484,81,32581
8485,32,32607
8486,30,32616
8487,114,32618
8488,124,32666
8489,70,32692
8490,127,32729
8491,3,32743
8492,64,32751
8493,20,32758
8494,35,32793
8495,128,32799
8496,87,32812
8497,73,32821
8498,81,32828
8499,76,32845
8500,24,32846
8501,81,32853
8502,16,32896
8503,43,32901
8504,13,32922
8505,104,32927
8506,100,32944
8507,91,32968
8508,138,32971
8509,98,32988
8510,70,32997
8511,94,33047
8512,65,38890
8513,204,38893
8514,73,38895
8515,78,38902
8516,101,38905
8517,98,38907
8518,204,38916
8519,64,38926
8520,72,38928
8521,179,38943
8522,213,38944
8523,61,38948
8524,135,38977
8525,220,38980
8526,35,38994
8527,70,38995
8528,204,39002
8529,60,39011
8530,107,39013
8531,97,39016
8532,163,39017
8533,20,39023
8534,69,39030
8535,17,39034
8536,138,39035
8537,0,39047
8538,131,39063
8539,68,39068
8540,9,39074
8541,125,39086
8542,42,39108
8543,61,39115
8544,65,28688
8545,84,28689
8546,131,28691
8547,37,28693
8548,12,28703
8549,84,28707
8550,132,28709
8551,19,28717
8552,64,28724
