,partition,vertex
0,49,1145
1,2,1161
2,100,1298
3,0,1359
4,112,1381
5,34,1405
6,34,1445
7,17,1461
8,8,1483
9,108,1543
10,12,1551
11,90,1554
12,119,1557
13,4,1560
14,125,1573
15,131,1587
16,204,1596
17,94,1622
18,35,1636
19,7,1668
20,79,1687
21,35,1748
22,123,1762
23,214,1791
24,13,1817
25,87,1849
26,137,1884
27,4,1899
28,130,1917
29,83,1933
30,217,1945
31,220,1948
32,173,37516
33,99,37523
34,19,37527
35,117,37531
36,61,37538
37,108,37541
38,20,37545
39,64,37549
40,35,37561
41,9,37568
42,4,37576
43,13,37578
44,118,37581
45,104,37593
46,98,37595
47,76,37600
48,127,37601
49,211,37622
50,86,37634
51,96,37639
52,98,37642
53,30,37659
54,158,37662
55,20,37663
56,24,37665
57,101,37672
58,179,37684
59,98,37686
60,51,37692
61,84,37698
62,120,37700
63,79,37713
64,56,52933
65,64,52934
66,136,52952
67,111,52969
68,135,52977
69,107,53005
70,212,53007
71,158,53038
72,41,53045
73,65,53048
74,101,53050
75,204,53057
76,66,53060
77,131,53067
78,13,53072
79,28,53079
80,131,53081
81,59,53088
82,91,53094
83,111,53095
84,111,53096
85,92,53108
86,28,53109
87,94,53114
88,88,53120
89,198,53132
90,8,53152
91,4,53158
92,51,53163
93,14,53164
94,87,53184
95,158,53188
96,84,51866
97,24,51868
98,91,51877
99,87,51880
100,220,51883
101,220,51884
102,137,51886
103,98,51889
104,60,51890
105,120,51893
106,92,51897
107,134,51898
108,212,51911
109,23,51912
110,42,51913
111,73,51917
112,4,51918
113,11,51922
114,79,51926
115,45,51930
116,29,51931
117,97,51932
118,41,51934
119,132,51936
120,75,51941
121,18,51942
122,70,51948
123,70,51949
124,41,51950
125,127,51951
126,35,51952
127,65,51953
128,113,50591
129,129,50612
130,181,50634
131,34,50643
132,35,50644
133,92,50703
134,83,50711
135,79,50738
136,24,50778
137,185,50785
138,198,50830
139,55,50855
140,98,50861
141,73,50972
142,28,50993
143,45,51009
144,118,51071
145,16,51091
146,207,51112
147,213,51194
148,130,51207
149,64,51209
150,53,51221
151,104,51225
152,140,51230
153,62,51265
154,4,51280
155,86,51289
156,22,51307
157,54,51314
158,99,51337
159,97,51378
160,133,30624
161,180,30629
162,81,30630
163,58,30632
164,107,30634
165,109,30636
166,7,30641
167,92,30642
168,127,30645
169,0,30648
170,127,30651
171,180,30654
172,104,30656
173,211,30659
174,17,30660
175,17,30661
176,101,30662
177,119,30663
178,81,30666
179,11,30667
180,22,30669
181,82,30670
182,35,30673
183,112,30679
184,31,30681
185,34,30682
186,138,30685
187,217,30697
188,46,30708
189,78,30710
190,21,30715
191,139,30716
192,71,23731
193,133,23770
194,44,23772
195,34,23778
196,173,23783
197,118,23795
198,72,23805
199,62,23823
200,212,23830
201,67,23834
202,70,23850
203,123,23855
204,109,23864
205,167,23865
206,66,23870
207,106,23872
208,111,23873
209,23,23905
210,107,23908
211,76,23909
212,208,23913
213,17,23925
214,109,23929
215,209,23962
216,107,23964
217,69,23970
218,220,23972
219,31,23976
220,12,23987
221,11,23996
222,69,24004
223,30,24017
224,68,44244
225,64,44248
226,107,44249
227,20,44254
228,195,44261
229,70,44270
230,83,44278
231,214,44289
232,179,44295
233,35,44296
234,99,44300
235,52,44307
236,46,44309
237,138,44315
238,13,44322
239,47,44328
240,138,44332
241,163,44338
242,72,44343
243,128,44350
244,90,44351
245,24,44352
246,99,44369
247,209,44372
248,0,44373
249,115,44398
250,46,44425
251,84,44427
252,131,44432
253,0,44439
254,143,44452
255,140,44461
256,204,52706
257,119,52827
258,86,53183
259,45,53268
260,163,53474
261,133,53521
262,107,53630
263,193,53720
264,52,53944
265,4,53953
266,38,54009
267,139,54096
268,30,54354
269,155,54356
270,119,54742
271,92,54888
272,134,54962
273,57,55485
274,163,55582
275,31,55593
276,193,55609
277,79,55639
278,17,56072
279,195,56966
280,13,69
281,35,292
282,69,360
283,14,374
284,55,507
285,35,525
286,94,614
287,80,655
288,143,20327
289,137,20343
290,70,20344
291,118,20352
292,138,20353
293,84,20357
294,193,20363
295,94,20372
296,76,20375
297,51,20387
298,46,20391
299,111,20404
300,61,20408
301,38,20410
302,124,20414
303,128,20429
304,118,20432
305,81,20448
306,193,20461
307,78,20469
308,87,20490
309,76,20509
310,216,20519
311,208,20530
312,91,20535
313,76,20539
314,12,20542
315,55,20570
316,20,20573
317,11,20582
318,6,20600
319,49,20603
320,101,49463
321,77,49465
322,113,49471
323,73,49477
324,23,49480
325,193,49483
326,42,49484
327,34,49487
328,20,49488
329,98,49489
330,97,49492
331,98,49493
332,21,49494
333,179,49495
334,104,49498
335,19,49499
336,131,49512
337,43,49514
338,72,49518
339,35,49520
340,127,49522
341,35,49525
342,11,49528
343,216,49529
344,173,49530
345,35,49531
346,115,49532
347,35,49533
348,204,49538
349,209,49541
350,79,49545
351,198,49548
352,217,38646
353,87,38647
354,143,38658
355,198,38663
356,72,38671
357,209,38675
358,94,38679
359,87,38683
360,212,38684
361,34,38687
362,66,38692
363,193,38694
364,220,38698
365,49,38706
366,116,38710
367,78,38715
368,36,38735
369,16,38738
370,53,38748
371,4,38753
372,217,38755
373,64,38762
374,83,38768
375,17,38769
376,208,38772
377,12,38787
378,35,38805
379,92,38806
380,209,38807
381,220,38808
382,108,38809
383,99,38813
384,41,45961
385,216,45965
386,43,45966
387,49,45970
388,163,45971
389,74,45973
390,193,45978
391,20,45980
392,11,45984
393,118,45985
394,185,45986
395,116,45989
396,44,45993
397,118,45996
398,217,45997
399,111,46000
400,71,46001
401,216,46006
402,120,46009
403,217,46011
404,95,46020
405,57,46022
406,0,46024
407,136,46025
408,125,46030
409,135,46031
410,67,46038
411,34,46043
412,132,46048
413,6,46050
414,20,46054
415,204,46055
416,35,18946
417,52,18947
418,130,18953
419,49,18954
420,101,18959
421,118,18973
422,185,18975
423,117,18983
424,61,18994
425,185,19000
426,133,19007
427,118,19010
428,138,19011
429,52,19023
430,111,19027
431,16,19036
432,213,19038
433,193,19044
434,98,19048
435,121,19066
436,127,19083
437,217,19098
438,79,19105
439,135,19106
440,127,19107
441,45,19110
442,62,19120
443,70,19122
444,94,19137
445,108,19138
446,204,19141
447,120,19170
448,19,47895
449,111,47896
450,173,47897
451,82,47899
452,20,47908
453,101,47914
454,57,47918
455,86,47920
456,75,47928
457,3,47943
458,95,47947
459,83,47956
460,23,47959
461,20,47974
462,108,47988
463,123,47991
464,6,47994
465,131,48012
466,103,48024
467,84,48025
468,195,48035
469,217,48044
470,0,48048
471,99,48051
472,140,48052
473,173,48057
474,96,48065
475,65,48070
476,4,48071
477,207,48088
478,90,48100
479,57,48101
480,16,56142
481,19,56152
482,213,56153
483,49,56154
484,71,56156
485,29,56157
486,198,56158
487,17,56159
488,90,56161
489,30,56163
490,198,56165
491,8,56172
492,15,56173
493,195,56174
494,185,56176
495,11,56177
496,61,56178
497,209,56180
498,179,56184
499,198,56185
500,220,56186
501,173,56189
502,207,56191
503,110,56193
504,108,56195
505,112,56196
506,57,56198
507,211,56200
508,60,56201
509,19,56203
510,110,56207
511,55,56208
512,114,23431
513,137,23439
514,83,23444
515,108,23449
516,35,23450
517,19,23457
518,99,23460
519,88,23469
520,116,23473
521,7,23478
522,220,23511
523,217,23519
524,78,23521
525,73,23523
526,114,23529
527,132,23551
528,132,23554
529,131,23563
530,8,23572
531,55,23577
532,35,23588
533,179,23597
534,204,23601
535,71,23609
536,214,23619
537,173,23620
538,120,23640
539,37,23673
540,58,23687
541,79,23692
542,198,23709
543,79,23727
544,173,19053
545,11,19055
546,41,19077
547,37,19080
548,108,19082
549,55,19090
550,208,19100
551,87,19101
552,158,19124
553,3,19128
554,96,19130
555,31,19135
556,94,19140
557,9,19147
558,198,19148
559,28,19150
560,140,19154
561,94,19155
562,4,19161
563,68,19178
564,220,19182
565,65,19188
566,70,19196
567,34,19229
568,121,19234
569,217,19248
570,179,19259
571,132,19283
572,11,19288
573,69,19302
574,87,19312
575,141,19314
576,40,22589
577,207,22602
578,19,22606
579,120,22619
580,15,22629
581,114,22631
582,118,22633
583,130,22635
584,109,22639
585,91,22640
586,212,22716
587,71,22719
588,40,22725
589,61,22727
590,70,22732
591,63,22768
592,39,22772
593,70,22793
594,135,22801
595,118,22808
596,129,22815
597,220,22816
598,137,22852
599,70,22876
600,140,22894
601,107,22896
602,3,22903
603,4,22912
604,112,22917
605,64,22938
606,127,22941
607,52,22942
608,95,404
609,66,422
610,83,471
611,59,502
612,91,512
613,35,513
614,52,514
615,207,518
616,173,528
617,138,540
618,52,546
619,55,577
620,4,604
621,26,646
622,87,647
623,132,653
624,53,663
625,119,671
626,204,689
627,45,691
628,3,725
629,34,751
630,0,754
631,131,763
632,63,792
633,70,797
634,204,798
635,49,800
636,195,814
637,26,865
638,13,866
639,104,896
640,124,33643
641,116,33645
642,116,33649
643,37,33660
644,37,33671
645,58,33682
646,41,33717
647,125,33732
648,2,33740
649,40,33749
650,51,33750
651,133,33754
652,76,33767
653,91,33796
654,64,33816
655,204,33821
656,138,33823
657,8,33827
658,127,33830
659,64,33839
660,137,33852
661,113,33857
662,131,33868
663,42,33870
664,120,33872
665,87,33875
666,51,33880
667,29,33881
668,167,33900
669,98,33908
670,101,33917
671,60,33920
672,207,23238
673,81,23239
674,58,23259
675,13,23269
676,43,23284
677,68,23291
678,73,23305
679,98,23310
680,3,23323
681,180,23332
682,131,23337
683,84,23346
684,127,23352
685,67,23367
686,27,23401
687,139,23407
688,100,23410
689,28,23414
690,65,23415
691,217,23416
692,127,23419
693,50,23435
694,80,23436
695,24,23440
696,67,23441
697,134,23442
698,124,23446
699,132,23463
700,3,23465
701,128,23468
702,64,23470
703,17,23495
704,85,37701
705,91,37710
706,93,37717
707,27,37724
708,163,37740
709,139,37762
710,118,37766
711,16,37774
712,63,37776
713,212,37791
714,3,37793
715,173,37798
716,3,37811
717,4,37819
718,92,37820
719,58,37849
720,46,37862
721,90,37863
722,94,37866
723,9,37869
724,204,37870
725,133,37871
726,28,37874
727,55,37885
728,32,37906
729,111,37909
730,84,37912
731,140,37918
732,8,37922
733,91,37925
734,91,37927
735,70,37928
736,41,5948
737,204,5955
738,9,5979
739,67,5996
740,71,6064
741,140,6065
742,207,6088
743,20,6091
744,87,6106
745,35,6107
746,96,6109
747,123,6116
748,204,6157
749,46,6180
750,132,6269
751,12,6347
752,52,6364
753,126,6461
754,72,6526
755,208,6532
756,60,6564
757,70,6577
758,54,6600
759,13,6627
760,141,6628
761,28,6663
762,26,6767
763,66,6768
764,3,6815
765,42,6896
766,135,6904
767,108,6949
768,33,40861
769,65,40862
770,214,40863
771,34,40865
772,62,40866
773,9,40870
774,21,40887
775,91,40888
776,101,40891
777,48,40898
778,141,40900
779,13,40901
780,70,40907
781,4,40908
782,37,40910
783,204,40913
784,6,40914
785,61,40915
786,126,40916
787,127,40926
788,96,40927
789,82,40928
790,94,40931
791,12,40936
792,127,40943
793,155,40949
794,28,40958
795,207,40974
796,3,40975
797,7,40980
798,84,40986
799,67,40989
800,125,1794
801,97,2013
802,87,2110
803,46,2143
804,9,2321
805,71,2769
806,0,2954
807,101,3094
808,198,3178
809,26,3213
810,0,3227
811,104,3330
812,104,3491
813,158,3597
814,4,3652
815,40,3712
816,77,3802
817,110,3823
818,96,3959
819,65,3964
820,71,4043
821,51,4059
822,78,4121
823,95,4152
824,73,4314
825,106,4502
826,38,4572
827,125,4582
828,69,4588
829,135,4646
830,138,4672
831,138,4717
832,16,7678
833,137,7681
834,99,7703
835,70,7721
836,208,7722
837,87,7727
838,72,7736
839,35,7747
840,216,7756
841,180,7762
842,173,7764
843,78,7770
844,6,7776
845,138,7777
846,163,7783
847,45,7791
848,26,7793
849,140,7802
850,21,7808
851,158,7809
852,180,7827
853,123,7838
854,53,7843
855,67,7854
856,43,7860
857,62,7864
858,35,7867
859,107,7874
860,195,7887
861,158,7912
862,3,7914
863,96,7922
864,52,44589
865,29,44591
866,88,44593
867,127,44601
868,84,44611
869,68,44617
870,84,44623
871,123,44624
872,220,44626
873,91,44635
874,55,44636
875,143,44638
876,98,44640
877,16,44648
878,58,44650
879,51,44651
880,143,44657
881,8,44661
882,27,44665
883,212,44668
884,158,44674
885,217,44683
886,136,44685
887,180,44688
888,134,44690
889,34,44693
890,16,44695
891,208,44696
892,132,44698
893,63,44706
894,158,44711
895,81,44716
896,16,44930
897,34,44959
898,179,44975
899,92,44994
900,16,45012
901,81,45027
902,21,45034
903,60,45046
904,16,45057
905,136,45060
906,87,45083
907,140,45092
908,35,45098
909,114,45100
910,116,45107
911,58,45132
912,193,45146
913,193,45152
914,39,45193
915,141,45196
916,3,45213
917,139,45256
918,141,45272
919,34,45278
920,19,45363
921,207,45371
922,58,45380
923,198,45390
924,4,45407
925,109,45423
926,70,45428
927,48,45430
928,185,43930
929,135,43942
930,62,43969
931,179,44022
932,217,44051
933,204,44060
934,20,44068
935,207,44092
936,96,44093
937,3,44176
938,83,44178
939,163,44272
940,128,44285
941,100,44407
942,30,44524
943,167,44552
944,98,44629
945,173,44780
946,65,44804
947,92,44856
948,35,44858
949,209,44903
950,45,45014
951,123,45134
952,108,45141
953,207,45225
954,208,45339
955,179,45341
956,179,45379
957,44,45438
958,78,45514
959,44,45529
960,90,35386
961,72,35391
962,207,35394
963,44,35403
964,135,35419
965,185,35429
966,88,35433
967,71,35467
968,7,35469
969,59,35478
970,140,35481
971,213,35489
972,64,35492
973,81,35495
974,70,35499
975,13,35502
976,90,35505
977,138,35512
978,214,35519
979,28,35527
980,21,35529
981,118,35534
982,124,35536
983,211,35538
984,109,35540
985,207,35555
986,111,35565
987,134,35573
988,124,35574
989,64,35577
990,8,35585
991,86,35603
992,45,13892
993,220,13927
994,16,13928
995,104,13935
996,16,13952
997,124,13966
998,76,13968
999,70,14001
1000,20,14068
1001,65,14073
1002,42,14092
1003,96,14117
1004,94,14120
1005,120,14124
1006,4,14132
1007,84,14148
1008,11,14162
1009,34,14164
1010,193,14166
1011,100,14179
1012,173,14186
1013,133,14212
1014,77,14215
1015,77,14223
1016,70,14266
1017,139,14272
1018,62,14331
1019,76,14339
1020,56,14366
1021,107,14392
1022,138,14403
1023,101,14413
1024,63,42116
1025,17,42142
1026,34,42144
1027,31,42161
1028,108,42176
1029,52,42182
1030,130,42190
1031,16,42207
1032,41,42227
1033,209,42234
1034,23,42243
1035,12,42245
1036,73,42247
1037,94,42267
1038,16,42274
1039,127,42279
1040,140,42280
1041,54,42300
1042,71,42303
1043,99,42314
1044,8,42329
1045,109,42332
1046,137,42345
1047,45,42369
1048,26,42370
1049,127,42381
1050,113,42386
1051,0,42390
1052,112,42411
1053,109,42412
1054,34,42441
1055,127,42444
1056,123,12001
1057,136,12027
1058,11,12029
1059,204,12057
1060,8,12059
1061,140,12110
1062,4,12122
1063,139,12183
1064,193,12189
1065,167,12194
1066,137,12246
1067,173,12340
1068,70,12348
1069,99,12351
1070,106,12366
1071,13,12377
1072,94,12384
1073,104,12396
1074,27,12408
1075,111,12455
1076,204,12458
1077,77,12470
1078,127,12480
1079,207,12485
1080,72,12490
1081,213,12492
1082,77,12555
1083,179,12592
1084,21,12650
1085,44,12679
1086,83,12743
1087,65,12769
1088,91,2196
1089,40,2305
1090,21,2392
1091,68,2425
1092,139,2429
1093,77,2443
1094,58,2501
1095,87,2554
1096,220,2587
1097,0,2634
1098,87,2648
1099,204,2718
1100,45,2745
1101,173,2752
1102,208,2765
1103,83,2772
1104,19,2868
1105,53,2873
1106,213,2893
1107,70,2923
1108,32,2976
1109,132,2977
1110,7,2980
1111,19,3021
1112,198,3179
1113,8,3188
1114,96,3207
1115,35,3256
1116,120,3269
1117,112,3344
1118,87,3359
1119,19,3393
1120,78,40814
1121,8,40815
1122,98,40821
1123,6,40828
1124,63,40832
1125,84,40846
1126,91,40878
1127,109,40879
1128,6,40881
1129,72,40882
1130,111,40885
1131,88,40892
1132,90,40903
1133,12,40906
1134,0,40912
1135,34,40918
1136,19,40919
1137,65,40932
1138,107,40935
1139,107,40937
1140,179,40942
1141,67,40945
1142,83,40952
1143,217,40955
1144,132,40965
1145,34,40971
1146,68,40991
1147,131,40999
1148,127,41006
1149,137,41011
1150,45,41013
1151,27,41015
1152,173,52845
1153,55,52849
1154,209,52852
1155,68,52856
1156,131,52859
1157,71,52869
1158,127,52873
1159,118,52878
1160,72,52879
1161,79,52882
1162,72,52895
1163,123,52896
1164,11,52905
1165,8,52912
1166,83,52913
1167,78,52920
1168,24,52925
1169,155,52927
1170,76,52945
1171,137,52947
1172,58,52949
1173,34,52954
1174,63,52963
1175,34,52967
1176,131,52968
1177,43,52987
1178,31,52992
1179,41,52993
1180,52,52994
1181,63,53000
1182,65,53003
1183,198,53015
1184,64,58441
1185,70,58442
1186,7,58444
1187,34,58447
1188,220,58448
1189,27,58450
1190,141,58451
1191,97,58452
1192,54,58453
1193,40,58454
1194,134,58456
1195,51,58459
1196,52,58460
1197,111,58462
1198,193,58463
1199,31,58464
1200,204,58466
1201,55,58469
1202,220,58471
1203,107,58478
1204,30,58480
1205,125,58483
1206,139,58486
1207,173,58488
1208,111,58490
1209,138,58491
1210,91,58492
1211,35,58493
1212,23,58494
1213,101,58495
1214,123,58496
1215,138,58498
1216,43,42450
1217,91,42469
1218,4,42484
1219,108,42503
1220,110,42507
1221,198,42518
1222,214,42529
1223,33,42531
1224,78,42543
1225,120,42548
1226,100,42553
1227,33,42554
1228,207,42555
1229,96,42569
1230,57,42577
1231,73,42582
1232,27,42586
1233,65,42591
1234,207,42595
1235,89,42620
1236,213,42630
1237,16,42631
1238,19,42640
1239,115,42644
1240,53,42648
1241,100,42652
1242,52,42670
1243,137,42692
1244,181,42693
1245,58,42700
1246,3,42716
1247,167,42718
1248,3,29379
1249,16,29381
1250,198,29382
1251,0,29394
1252,99,29397
1253,127,29401
1254,216,29404
1255,118,29405
1256,63,29408
1257,213,29423
1258,35,29426
1259,108,29427
1260,64,29438
1261,68,29446
1262,81,29453
1263,24,29454
1264,109,29455
1265,141,29456
1266,204,29467
1267,209,29470
1268,62,29472
1269,47,29481
1270,111,29483
1271,64,29484
1272,193,29487
1273,124,29488
1274,23,29506
1275,72,29516
1276,113,29521
1277,193,29526
1278,109,29532
1279,98,29536
1280,181,17982
1281,106,18007
1282,21,18029
1283,47,18031
1284,87,18034
1285,82,18076
1286,59,18093
1287,140,18105
1288,62,18107
1289,100,18113
1290,98,18134
1291,3,18136
1292,47,18143
1293,130,18154
1294,120,18163
1295,137,18195
1296,213,18220
1297,103,18221
1298,64,18294
1299,139,18296
1300,185,18299
1301,135,18306
1302,141,18313
1303,23,18315
1304,16,18328
1305,217,18330
1306,139,18332
1307,116,18335
1308,181,18340
1309,64,18345
1310,121,18349
1311,51,18358
1312,9,8008
1313,58,8062
1314,45,8091
1315,3,8095
1316,108,8107
1317,23,8183
1318,28,8198
1319,208,8220
1320,9,8271
1321,173,8282
1322,72,8363
1323,61,8370
1324,59,8377
1325,8,8392
1326,155,8457
1327,135,8564
1328,193,8576
1329,82,8664
1330,209,8761
1331,173,8832
1332,112,8899
1333,143,8934
1334,16,8977
1335,21,8980
1336,118,8994
1337,35,9017
1338,20,9041
1339,207,9063
1340,91,9156
1341,60,9312
1342,47,9337
1343,42,9349
1344,57,51670
1345,181,51672
1346,131,51673
1347,91,51675
1348,123,51676
1349,180,51677
1350,131,51680
1351,77,51683
1352,73,51687
1353,99,51691
1354,58,51692
1355,216,51695
1356,71,51697
1357,65,51702
1358,33,51703
1359,193,51704
1360,204,51713
1361,53,51714
1362,108,51716
1363,62,51719
1364,92,51722
1365,40,51724
1366,64,51725
1367,198,51733
1368,70,51735
1369,30,51739
1370,36,51740
1371,58,51746
1372,65,51747
1373,84,51753
1374,217,51757
1375,3,51760
1376,2,28720
1377,6,28737
1378,84,28743
1379,95,28746
1380,13,28747
1381,22,28748
1382,2,28751
1383,107,28752
1384,61,28753
1385,19,28756
1386,117,28765
1387,195,28772
1388,3,28774
1389,128,28788
1390,138,28789
1391,87,28791
1392,180,28811
1393,128,28818
1394,35,28820
1395,45,28822
1396,118,28824
1397,28,28826
1398,137,28827
1399,49,28845
1400,113,28849
1401,43,28852
1402,91,28857
1403,35,28878
1404,4,28879
1405,195,28882
1406,109,28884
1407,118,28900
1408,33,34361
1409,116,34362
1410,12,34380
1411,134,34384
1412,61,34385
1413,118,34387
1414,114,34394
1415,98,34398
1416,216,34408
1417,59,34418
1418,181,34423
1419,87,34427
1420,45,34432
1421,204,34434
1422,140,34445
1423,204,34449
1424,209,34453
1425,108,34455
1426,213,34462
1427,28,34479
1428,40,34497
1429,119,34508
1430,40,34516
1431,97,34518
1432,180,34520
1433,123,34521
1434,47,34525
1435,34,34534
1436,209,34539
1437,213,34545
1438,73,34549
1439,207,34551
1440,216,27764
1441,59,27769
1442,71,27770
1443,116,27787
1444,204,27793
1445,59,27798
1446,215,27805
1447,7,27810
1448,62,27821
1449,61,27823
1450,67,27827
1451,185,27838
1452,51,27841
1453,101,27854
1454,70,27856
1455,139,27875
1456,40,27887
1457,135,27896
1458,72,27908
1459,66,27909
1460,35,27921
1461,216,27932
1462,167,27936
1463,4,27943
1464,117,27949
1465,114,27953
1466,113,27954
1467,98,27971
1468,99,27980
1469,0,27983
1470,53,27985
1471,65,27991
1472,208,15232
1473,13,15253
1474,109,15303
1475,208,15353
1476,76,15366
1477,65,15386
1478,48,15401
1479,20,15441
1480,140,15442
1481,57,15450
1482,198,15461
1483,4,15491
1484,31,15492
1485,68,15501
1486,63,15511
1487,63,15520
1488,26,15588
1489,51,15621
1490,113,15634
1491,24,15670
1492,60,15694
1493,13,15707
1494,32,15726
1495,42,15746
1496,52,15754
1497,20,15775
1498,52,15784
1499,73,15795
1500,75,15830
1501,39,15881
1502,128,15885
1503,3,15892
1504,64,29677
1505,117,29687
1506,107,29689
1507,70,29690
1508,98,29694
1509,69,29700
1510,99,29704
1511,72,29707
1512,139,29711
1513,113,29724
1514,43,29733
1515,73,29736
1516,173,29737
1517,88,29738
1518,88,29740
1519,158,29741
1520,110,29745
1521,0,29747
1522,117,29757
1523,34,29773
1524,79,29774
1525,132,29784
1526,155,29788
1527,68,29791
1528,13,29792
1529,208,29799
1530,217,29803
1531,29,29807
1532,108,29813
1533,143,29815
1534,127,29816
1535,33,29822
1536,195,45567
1537,12,45571
1538,124,45587
1539,20,45590
1540,207,45617
1541,129,45629
1542,127,45632
1543,1,45648
1544,92,45661
1545,25,45672
1546,158,45678
1547,134,45716
1548,81,45719
1549,133,45721
1550,54,45732
1551,163,45744
1552,2,45747
1553,94,45748
1554,75,45754
1555,87,45776
1556,100,45777
1557,0,45780
1558,81,45794
1559,58,45797
1560,23,45803
1561,130,45825
1562,211,45826
1563,209,45829
1564,106,45844
1565,140,45864
1566,68,45877
1567,123,45879
1568,61,21711
1569,138,21730
1570,125,21734
1571,79,21739
1572,143,21743
1573,38,21753
1574,124,21754
1575,138,21759
1576,127,21761
1577,61,21786
1578,42,21793
1579,99,21797
1580,120,21803
1581,143,21806
1582,212,21811
1583,28,21868
1584,91,21885
1585,61,21895
1586,75,21896
1587,96,21924
1588,70,21925
1589,129,21933
1590,214,21934
1591,84,21936
1592,58,21937
1593,68,21942
1594,47,21949
1595,84,21955
1596,92,21971
1597,53,21973
1598,35,21978
1599,40,21988
1600,131,4319
1601,82,4325
1602,24,4338
1603,82,4410
1604,180,4494
1605,28,4495
1606,35,4523
1607,137,4535
1608,173,4536
1609,158,4537
1610,129,4549
1611,87,4557
1612,141,4607
1613,0,4687
1614,108,4751
1615,64,4773
1616,40,4794
1617,138,4829
1618,19,4852
1619,20,4871
1620,83,4873
1621,87,4897
1622,40,4904
1623,138,4907
1624,80,4926
1625,19,4936
1626,72,4952
1627,19,4967
1628,33,4968
1629,12,5022
1630,125,5033
1631,24,5042
1632,16,21240
1633,61,21254
1634,131,21260
1635,133,21261
1636,217,21274
1637,65,21288
1638,107,21324
1639,61,21340
1640,17,21352
1641,220,21359
1642,71,21368
1643,42,21375
1644,8,21410
1645,41,21417
1646,133,21421
1647,100,21445
1648,131,21448
1649,31,21453
1650,68,21462
1651,193,21465
1652,64,21466
1653,220,21469
1654,83,21475
1655,57,21501
1656,121,21504
1657,55,21506
1658,195,21543
1659,91,21561
1660,53,21566
1661,138,21568
1662,95,21571
1663,90,21586
1664,207,25675
1665,24,25683
1666,117,25696
1667,110,25698
1668,77,25699
1669,111,25705
1670,123,25706
1671,32,25710
1672,31,25713
1673,34,25715
1674,81,25720
1675,73,25721
1676,35,25727
1677,135,25730
1678,94,25735
1679,107,25736
1680,78,25737
1681,116,25740
1682,81,25743
1683,212,25750
1684,73,25753
1685,133,25763
1686,7,25771
1687,4,25774
1688,98,25783
1689,52,25789
1690,76,25792
1691,204,25793
1692,3,25805
1693,96,25810
1694,51,25817
1695,78,25825
1696,77,18963
1697,96,19043
1698,111,19058
1699,137,19068
1700,109,19069
1701,3,19070
1702,180,19127
1703,116,19134
1704,28,19143
1705,61,19151
1706,20,19157
1707,217,19162
1708,131,19168
1709,118,19192
1710,84,19194
1711,97,19203
1712,65,19223
1713,76,19277
1714,125,19370
1715,53,19380
1716,19,19442
1717,76,19451
1718,84,19454
1719,212,19485
1720,131,19488
1721,72,19554
1722,79,19629
1723,137,19647
1724,49,19826
1725,20,19833
1726,64,19836
1727,104,19902
1728,6,42222
1729,90,42226
1730,108,42229
1731,132,42233
1732,158,42252
1733,19,42255
1734,17,42259
1735,67,42264
1736,76,42277
1737,100,42282
1738,52,42284
1739,29,42287
1740,19,42297
1741,132,42299
1742,120,42306
1743,17,42309
1744,139,42310
1745,17,42311
1746,209,42320
1747,33,42326
1748,107,42327
1749,73,42330
1750,131,42342
1751,106,42352
1752,35,42355
1753,61,42361
1754,111,42377
1755,116,42395
1756,92,42397
1757,47,42404
1758,124,42416
1759,16,42422
1760,73,55964
1761,47,55965
1762,69,55968
1763,51,55970
1764,89,55971
1765,109,55974
1766,87,55975
1767,41,55976
1768,207,55977
1769,11,55978
1770,8,55980
1771,61,55983
1772,69,55985
1773,135,55986
1774,20,55987
1775,52,55988
1776,124,55989
1777,88,55998
1778,70,56001
1779,29,56003
1780,46,56004
1781,55,56008
1782,25,56010
1783,55,56011
1784,11,56013
1785,29,56014
1786,6,56015
1787,198,56023
1788,111,56024
1789,33,56027
1790,41,56028
1791,55,56029
1792,0,17003
1793,8,17005
1794,136,17020
1795,158,17026
1796,2,17027
1797,64,17031
1798,34,17050
1799,181,17052
1800,37,17057
1801,128,17062
1802,59,17066
1803,70,17069
1804,68,17089
1805,12,17091
1806,21,17103
1807,110,17109
1808,76,17117
1809,35,17132
1810,87,17138
1811,87,17151
1812,96,17166
1813,209,17182
1814,28,17191
1815,76,17215
1816,173,17226
1817,104,17244
1818,116,17250
1819,71,17266
1820,216,17267
1821,100,17268
1822,66,17274
1823,139,17276
1824,94,1236
1825,92,1248
1826,0,1320
1827,71,1335
1828,112,1390
1829,131,1397
1830,13,1398
1831,20,1399
1832,123,1408
1833,6,1417
1834,67,1424
1835,137,1442
1836,9,1479
1837,69,1491
1838,33,1523
1839,20,1547
1840,68,1571
1841,60,1576
1842,104,1625
1843,49,1630
1844,217,1662
1845,65,1667
1846,51,1704
1847,0,1736
1848,51,1775
1849,61,1835
1850,61,1850
1851,98,1866
1852,51,1872
1853,0,1894
1854,23,1908
1855,193,1921
1856,195,56481
1857,91,56483
1858,66,56484
1859,104,56486
1860,130,56487
1861,11,56488
1862,129,56491
1863,216,56495
1864,106,56504
1865,115,56505
1866,204,56509
1867,158,56512
1868,84,56517
1869,101,56523
1870,53,56525
1871,8,56527
1872,41,56529
1873,30,56534
1874,70,56538
1875,38,56539
1876,214,56541
1877,123,56542
1878,93,56552
1879,204,56553
1880,11,56556
1881,134,56558
1882,96,56562
1883,125,56563
1884,99,56568
1885,94,56569
1886,90,56571
1887,103,56573
1888,137,49671
1889,111,49676
1890,99,49677
1891,109,49679
1892,70,49684
1893,76,49685
1894,12,49686
1895,62,49690
1896,204,49693
1897,20,49694
1898,8,49696
1899,92,49697
1900,198,49700
1901,63,49702
1902,60,49703
1903,94,49704
1904,180,49705
1905,19,49706
1906,91,49707
1907,29,49709
1908,213,49710
1909,195,49711
1910,12,49712
1911,119,49714
1912,40,49716
1913,113,49717
1914,49,49719
1915,138,49720
1916,52,49721
1917,106,49722
1918,87,49723
1919,14,49724
1920,43,39443
1921,43,39444
1922,104,39447
1923,33,39458
1924,62,39459
1925,12,39460
1926,19,39466
1927,63,39467
1928,139,39470
1929,73,39472
1930,8,39484
1931,53,39491
1932,114,39500
1933,106,39505
1934,54,39512
1935,65,39536
1936,139,39538
1937,8,39541
1938,54,39542
1939,0,39543
1940,73,39556
1941,62,39558
1942,78,39564
1943,73,39582
1944,3,39588
1945,58,39591
1946,124,39595
1947,16,39605
1948,52,39609
1949,86,39612
1950,158,39614
1951,91,39617
1952,38,52261
1953,216,52269
1954,134,52274
1955,45,52277
1956,19,52278
1957,73,52279
1958,44,52282
1959,20,52287
1960,204,52288
1961,2,52291
1962,111,52297
1963,127,52299
1964,181,52301
1965,143,52302
1966,163,52303
1967,58,52304
1968,58,52305
1969,91,52306
1970,209,52313
1971,8,52320
1972,58,52332
1973,34,52340
1974,195,52348
1975,107,52355
1976,55,52365
1977,217,52373
1978,68,52374
1979,70,52378
1980,9,52387
1981,62,52390
1982,19,52392
1983,78,52393
1984,70,14613
1985,34,14665
1986,217,14675
1987,106,14683
1988,20,14686
1989,109,14703
1990,99,14723
1991,213,14724
1992,204,14729
1993,58,14733
1994,72,14785
1995,193,14787
1996,97,14839
1997,53,14850
1998,129,14871
1999,73,14877
2000,14,14879
2001,9,14905
2002,11,15020
2003,207,15033
2004,119,15066
2005,179,15076
2006,32,15088
2007,16,15153
2008,19,15154
2009,10,15159
2010,4,15162
2011,59,15196
2012,14,15202
2013,19,15211
2014,12,15212
2015,75,15223
2016,179,44024
2017,70,44039
2018,131,44045
2019,119,44062
2020,80,44063
2021,3,44074
2022,88,44089
2023,108,44101
2024,82,44105
2025,115,44111
2026,75,44118
2027,76,44119
2028,167,44126
2029,5,44129
2030,128,44132
2031,134,44133
2032,138,44143
2033,72,44149
2034,7,44158
2035,68,44159
2036,55,44167
2037,75,44168
2038,111,44173
2039,104,44175
2040,42,44177
2041,208,44181
2042,130,44203
2043,21,44204
2044,207,44210
2045,185,44222
2046,128,44240
2047,30,44243
2048,64,15793
2049,195,15831
2050,83,15834
2051,179,15846
2052,97,15852
2053,99,15861
2054,198,15865
2055,51,15876
2056,34,15884
2057,68,15898
2058,111,15928
2059,76,15931
2060,68,15932
2061,13,15948
2062,82,15959
2063,108,15962
2064,82,15975
2065,83,16016
2066,108,16022
2067,54,16036
2068,17,16041
2069,84,16057
2070,103,16070
2071,202,16074
2072,214,16077
2073,72,16081
2074,95,16082
2075,107,16089
2076,124,16115
2077,125,16129
2078,1,16152
2079,111,16155
2080,47,15922
2081,195,15927
2082,14,15969
2083,139,15978
2084,95,15979
2085,86,15997
2086,207,16004
2087,3,16026
2088,20,16080
2089,106,16092
2090,80,16096
2091,78,16125
2092,116,16127
2093,123,16134
2094,30,16140
2095,65,16148
2096,208,16156
2097,207,16158
2098,111,16189
2099,3,16190
2100,87,16208
2101,114,16222
2102,75,16238
2103,8,16260
2104,193,16266
2105,7,16274
2106,72,16280
2107,198,16301
2108,35,16307
2109,93,16311
2110,70,16327
2111,126,16359
2112,7,27749
2113,37,27789
2114,94,27846
2115,138,27914
2116,134,27918
2117,88,27945
2118,141,27962
2119,55,27979
2120,55,28170
2121,42,28237
2122,70,28250
2123,204,28481
2124,87,28629
2125,19,28640
2126,207,28661
2127,216,28673
2128,64,28754
2129,0,28786
2130,220,28810
2131,121,28815
2132,9,28821
2133,90,28870
2134,128,28886
2135,6,28945
2136,73,29048
2137,100,29080
2138,124,29137
2139,80,29193
2140,106,29253
2141,214,29259
2142,68,29271
2143,47,29286
2144,82,12531
2145,128,12537
2146,112,12540
2147,125,12547
2148,41,12548
2149,127,12551
2150,67,12601
2151,21,12634
2152,103,12639
2153,35,12640
2154,97,12643
2155,180,12667
2156,129,12676
2157,36,12690
2158,40,12698
2159,220,12705
2160,52,12728
2161,41,12774
2162,214,12785
2163,127,12826
2164,37,12829
2165,125,12841
2166,52,12843
2167,28,12851
2168,134,12882
2169,87,12889
2170,109,12897
2171,84,12902
2172,59,12907
2173,185,12919
2174,138,12925
2175,8,12939
2176,8,8468
2177,77,8470
2178,60,8501
2179,9,8504
2180,119,8508
2181,106,8511
2182,72,8512
2183,58,8522
2184,12,8529
2185,95,8530
2186,81,8536
2187,140,8585
2188,20,8592
2189,35,8598
2190,20,8599
2191,217,8610
2192,207,8615
2193,167,8626
2194,61,8648
2195,21,8649
2196,77,8669
2197,23,8683
2198,12,8686
2199,204,8688
2200,100,8689
2201,60,8694
2202,91,8700
2203,106,8712
2204,51,8714
2205,111,8728
2206,21,8736
2207,58,8739
2208,45,3728
2209,13,3756
2210,116,3758
2211,91,3771
2212,41,3772
2213,217,3784
2214,61,3816
2215,180,3837
2216,158,3849
2217,35,3852
2218,81,3853
2219,68,3879
2220,87,3881
2221,68,3889
2222,116,3897
2223,211,3916
2224,98,3979
2225,108,3989
2226,63,3997
2227,60,4004
2228,83,4027
2229,118,4028
2230,12,4062
2231,110,4138
2232,212,4139
2233,204,4145
2234,113,4150
2235,8,4151
2236,38,4176
2237,0,4198
2238,87,4226
2239,106,4239
2240,14,54365
2241,83,54367
2242,65,54371
2243,138,54373
2244,55,54377
2245,107,54379
2246,66,54383
2247,47,54389
2248,71,54390
2249,80,54392
2250,123,54394
2251,124,54395
2252,217,54396
2253,195,54397
2254,91,54400
2255,4,54406
2256,84,54408
2257,135,54411
2258,60,54412
2259,62,54415
2260,97,54419
2261,129,54423
2262,132,54428
2263,79,54429
2264,99,54431
2265,68,54434
2266,59,54439
2267,35,54445
2268,54,54446
2269,56,54447
2270,128,54448
2271,71,54451
2272,43,23813
2273,14,23849
2274,35,23852
2275,133,23866
2276,52,23876
2277,139,23880
2278,104,23885
2279,20,23935
2280,138,23936
2281,193,23947
2282,173,23958
2283,193,24014
2284,16,24016
2285,86,24036
2286,76,24062
2287,92,24067
2288,208,24082
2289,64,24103
2290,112,24153
2291,73,24159
2292,6,24165
2293,60,24166
2294,59,24179
2295,91,24192
2296,195,24196
2297,82,24271
2298,61,24289
2299,77,24324
2300,108,24363
2301,34,24396
2302,49,24421
2303,127,24426
2304,61,45650
2305,15,45652
2306,143,45654
2307,118,45664
2308,131,45673
2309,20,45674
2310,21,45677
2311,34,45680
2312,143,45682
2313,70,45689
2314,198,45693
2315,58,45698
2316,127,45700
2317,135,45704
2318,134,45708
2319,48,45714
2320,34,45718
2321,132,45720
2322,198,45722
2323,65,45726
2324,106,45727
2325,139,45730
2326,68,45738
2327,62,45749
2328,3,45755
2329,13,45756
2330,68,45758
2331,111,45759
2332,42,45764
2333,127,45770
2334,70,45773
2335,212,45775
2336,75,2407
2337,43,2411
2338,86,2412
2339,66,2416
2340,37,2444
2341,127,2462
2342,217,2483
2343,14,2510
2344,6,2532
2345,163,2563
2346,61,2605
2347,8,2647
2348,84,2660
2349,124,2755
2350,61,2756
2351,204,2776
2352,207,2796
2353,141,2812
2354,114,2826
2355,3,2965
2356,73,2987
2357,52,2994
2358,99,3103
2359,140,3105
2360,10,3121
2361,99,3142
2362,3,3155
2363,61,3201
2364,193,3225
2365,129,3288
2366,220,3294
2367,63,3311
2368,19,59371
2369,76,59372
2370,59,59373
2371,65,59377
2372,27,59378
2373,58,59386
2374,12,59391
2375,117,59400
2376,24,59405
2377,35,59406
2378,33,59410
2379,20,59414
2380,140,59418
2381,30,59421
2382,135,59427
2383,84,59429
2384,138,59437
2385,87,59439
2386,57,59440
2387,70,59442
2388,204,59456
2389,84,59457
2390,101,59466
2391,32,59474
2392,40,59476
2393,28,59481
2394,66,59483
2395,84,59491
2396,129,59497
2397,212,59500
2398,132,59506
2399,27,59523
2400,138,55061
2401,93,55063
2402,136,55065
2403,34,55066
2404,11,55071
2405,134,55075
2406,216,55078
2407,67,55083
2408,69,55084
2409,193,55086
2410,127,55099
2411,111,55107
2412,43,55111
2413,91,55138
2414,34,55139
2415,78,55140
2416,64,55142
2417,31,55148
2418,3,55155
2419,211,55157
2420,139,55160
2421,78,55162
2422,198,55168
2423,155,55193
2424,12,55194
2425,88,55196
2426,107,55202
2427,1,55209
2428,31,55216
2429,20,55233
2430,23,55234
2431,118,55239
2432,139,11721
2433,5,11760
2434,107,11766
2435,73,11793
2436,195,11901
2437,123,11945
2438,112,11966
2439,41,11985
2440,34,11989
2441,77,11997
2442,132,12004
2443,23,12023
2444,141,12024
2445,16,12066
2446,49,12102
2447,3,12104
2448,137,12118
2449,6,12135
2450,64,12160
2451,88,12242
2452,114,12251
2453,109,12264
2454,61,12265
2455,217,12276
2456,214,12280
2457,198,12305
2458,134,12317
2459,163,12324
2460,35,12394
2461,135,12403
2462,91,12412
2463,111,12422
2464,23,7369
2465,78,7370
2466,87,7380
2467,16,7427
2468,100,7436
2469,62,7445
2470,12,7480
2471,4,7485
2472,78,7486
2473,134,7492
2474,8,7497
2475,17,7501
2476,21,7504
2477,181,7505
2478,220,7517
2479,91,7518
2480,28,7524
2481,1,7540
2482,173,7547
2483,0,7575
2484,2,7579
2485,20,7598
2486,17,7623
2487,19,7632
2488,195,7634
2489,181,7636
2490,49,7638
2491,2,7647
2492,42,7691
2493,113,7707
2494,3,7734
2495,123,7779
2496,3,41179
2497,214,41183
2498,217,41192
2499,127,41201
2500,113,41205
2501,81,41211
2502,47,41223
2503,84,41224
2504,108,41251
2505,137,41260
2506,94,41269
2507,80,41290
2508,45,41301
2509,115,41314
2510,111,41328
2511,47,41343
2512,10,41360
2513,163,41369
2514,58,41414
2515,214,41417
2516,137,41441
2517,217,41455
2518,135,41476
2519,28,41478
2520,124,41485
2521,94,41487
2522,54,41490
2523,130,41499
2524,124,41520
2525,33,41537
2526,141,41543
2527,38,41560
2528,134,32124
2529,35,32125
2530,62,32131
2531,141,32132
2532,91,32136
2533,12,32144
2534,62,32146
2535,136,32152
2536,209,32155
2537,7,32170
2538,193,32173
2539,131,32184
2540,124,32189
2541,209,32193
2542,125,32198
2543,207,32199
2544,64,32207
2545,16,32208
2546,101,32209
2547,110,32225
2548,12,32232
2549,155,32237
2550,75,32240
2551,20,32253
2552,99,32257
2553,27,32258
2554,3,32265
2555,34,32284
2556,55,32285
2557,213,32303
2558,77,32316
2559,131,32319
2560,17,43553
2561,124,43555
2562,31,43557
2563,125,43559
2564,134,43575
2565,54,43576
2566,179,43578
2567,61,43580
2568,158,43586
2569,158,43588
2570,58,43591
2571,64,43592
2572,213,43598
2573,26,43600
2574,52,43603
2575,185,43624
2576,64,43631
2577,75,43634
2578,76,43635
2579,116,43640
2580,63,43644
2581,61,43647
2582,204,43648
2583,19,43650
2584,80,43651
2585,57,43653
2586,12,43656
2587,121,43658
2588,70,43660
2589,70,43663
2590,214,43664
2591,6,43665
2592,93,33869
2593,108,33904
2594,86,33915
2595,207,33938
2596,128,33948
2597,35,33962
2598,136,33963
2599,173,33979
2600,204,33982
2601,14,33983
2602,90,33985
2603,128,34051
2604,0,34084
2605,62,34097
2606,209,34110
2607,87,34117
2608,62,34167
2609,47,34189
2610,204,34198
2611,71,34215
2612,31,34234
2613,11,34245
2614,208,34251
2615,111,34253
2616,14,34271
2617,20,34289
2618,54,34327
2619,193,34336
2620,13,34347
2621,204,34367
2622,117,34415
2623,19,34416
2624,72,56393
2625,193,56397
2626,71,56398
2627,63,56399
2628,53,56401
2629,202,56403
2630,84,56405
2631,119,56406
2632,207,56407
2633,87,56408
2634,143,56409
2635,16,56411
2636,87,56414
2637,96,56415
2638,75,56417
2639,85,56419
2640,19,56420
2641,0,56421
2642,217,56422
2643,92,56424
2644,70,56425
2645,32,56426
2646,131,56430
2647,208,56433
2648,125,56434
2649,180,56435
2650,34,56436
2651,17,56437
2652,76,56438
2653,84,56439
2654,125,56442
2655,6,56445
2656,35,7645
2657,123,7648
2658,220,7653
2659,14,7666
2660,123,7674
2661,204,7694
2662,91,7699
2663,133,7700
2664,9,7710
2665,208,7726
2666,6,7730
2667,49,7737
2668,35,7738
2669,20,7746
2670,99,7748
2671,2,7767
2672,180,7771
2673,217,7775
2674,118,7794
2675,61,7816
2676,52,7817
2677,40,7821
2678,0,7824
2679,73,7836
2680,69,7849
2681,24,7857
2682,216,7858
2683,0,7889
2684,79,7900
2685,180,7901
2686,94,7915
2687,73,7920
2688,66,44551
2689,204,44554
2690,61,44555
2691,81,44557
2692,0,44558
2693,138,44559
2694,80,44562
2695,47,44567
2696,198,44568
2697,173,44572
2698,81,44575
2699,70,44578
2700,57,44581
2701,124,44583
2702,193,44584
2703,81,44587
2704,41,44588
2705,98,44592
2706,137,44595
2707,12,44597
2708,3,44598
2709,137,44603
2710,173,44604
2711,94,44608
2712,0,44610
2713,34,44612
2714,35,44613
2715,106,44614
2716,94,44619
2717,13,44621
2718,73,44622
2719,208,44631
2720,11,35401
2721,68,35406
2722,134,35409
2723,209,35410
2724,180,35411
2725,163,35422
2726,20,35423
2727,220,35424
2728,40,35425
2729,53,35426
2730,179,35437
2731,63,35440
2732,88,35442
2733,179,35448
2734,140,35452
2735,35,35460
2736,115,35471
2737,33,35474
2738,140,35477
2739,64,35494
2740,4,35496
2741,91,35498
2742,216,35507
2743,137,35522
2744,43,35523
2745,126,35524
2746,80,35543
2747,118,35560
2748,216,35569
2749,3,35571
2750,216,35580
2751,128,35581
2752,35,28310
2753,32,28334
2754,138,28342
2755,158,28350
2756,65,28351
2757,14,28374
2758,94,28392
2759,105,28425
2760,112,28432
2761,65,28477
2762,79,28501
2763,35,28512
2764,0,28550
2765,124,28560
2766,20,28569
2767,98,28578
2768,12,28580
2769,211,28594
2770,136,28676
2771,132,28680
2772,65,28701
2773,120,28730
2774,134,28740
2775,195,28781
2776,23,28792
2777,92,28796
2778,214,28797
2779,58,28801
2780,106,28848
2781,51,28874
2782,128,28923
2783,44,28960
2784,84,17650
2785,78,17658
2786,60,17700
2787,195,17711
2788,21,17719
2789,8,17722
2790,64,17733
2791,209,17758
2792,21,17761
2793,21,17769
2794,212,17792
2795,33,17800
2796,85,17831
2797,1,17854
2798,42,17863
2799,8,17874
2800,47,17917
2801,77,17927
2802,108,17935
2803,58,17937
2804,27,17946
2805,37,17962
2806,107,17980
2807,108,18006
2808,216,18015
2809,140,18032
2810,119,18067
2811,70,18084
2812,130,18169
2813,12,18173
2814,3,18215
2815,42,18223
2816,19,12737
2817,73,12745
2818,179,12755
2819,127,12771
2820,167,12772
2821,193,12773
2822,7,12807
2823,68,12809
2824,208,12810
2825,135,12834
2826,135,12845
2827,101,12850
2828,66,12879
2829,45,12886
2830,81,12888
2831,78,12913
2832,20,12928
2833,11,12932
2834,84,12935
2835,58,12942
2836,83,12949
2837,117,12959
2838,76,12960
2839,134,12962
2840,41,12969
2841,134,12984
2842,52,13006
2843,124,13007
2844,45,13014
2845,61,13015
2846,167,13026
2847,9,13034
2848,104,8222
2849,49,8229
2850,24,8237
2851,84,8241
2852,71,8252
2853,6,8253
2854,121,8258
2855,65,8261
2856,8,8266
2857,32,8273
2858,104,8276
2859,81,8294
2860,35,8310
2861,20,8323
2862,6,8336
2863,19,8350
2864,96,8351
2865,212,8358
2866,31,8362
2867,135,8366
2868,29,8371
2869,100,8373
2870,134,8376
2871,0,8383
2872,12,8386
2873,140,8398
2874,133,8402
2875,19,8404
2876,94,8412
2877,13,8414
2878,89,8422
2879,137,8436
2880,220,7499
2881,35,7503
2882,135,7511
2883,67,7512
2884,70,7516
2885,99,7521
2886,100,7525
2887,9,7532
2888,64,7572
2889,92,7590
2890,140,7601
2891,207,7608
2892,3,7612
2893,131,7629
2894,47,7655
2895,59,7676
2896,140,7693
2897,135,7723
2898,220,7724
2899,58,7732
2900,59,7733
2901,87,7741
2902,124,7745
2903,70,7752
2904,49,7768
2905,217,7773
2906,98,7774
2907,81,7786
2908,8,7797
2909,52,7807
2910,134,7825
2911,73,7830
2912,16,31990
2913,209,31994
2914,88,31995
2915,158,32001
2916,88,32006
2917,179,32027
2918,114,32029
2919,179,32030
2920,204,32036
2921,2,32037
2922,52,32042
2923,118,32060
2924,65,32070
2925,99,32071
2926,43,32074
2927,127,32076
2928,213,32077
2929,158,32084
2930,138,32086
2931,98,32087
2932,47,32096
2933,76,32108
2934,58,32110
2935,24,32112
2936,138,32120
2937,8,32122
2938,121,32127
2939,163,32134
2940,73,32141
2941,138,32145
2942,207,32150
2943,77,32151
2944,32,1932
2945,43,1976
2946,19,1992
2947,112,2067
2948,55,2070
2949,58,2085
2950,80,2135
2951,140,2136
2952,220,2181
2953,109,2213
2954,0,2230
2955,47,2233
2956,101,2342
2957,195,2387
2958,83,2390
2959,211,2410
2960,92,2457
2961,133,2477
2962,98,2498
2963,138,2578
2964,46,2613
2965,43,2614
2966,7,2635
2967,6,2665
2968,128,2688
2969,20,2698
2970,204,2722
2971,135,2754
2972,128,2818
2973,40,2830
2974,220,2916
2975,52,2931
2976,212,17326
2977,60,17338
2978,185,17361
2979,133,17362
2980,61,17395
2981,139,17405
2982,12,17409
2983,96,17416
2984,34,17420
2985,117,17434
2986,120,17446
2987,131,17453
2988,28,17465
2989,95,17475
2990,0,17501
2991,8,17511
2992,4,17525
2993,41,17527
2994,198,17533
2995,193,17571
2996,92,17581
2997,13,17584
2998,64,17611
2999,121,17617
3000,12,17622
3001,94,17623
3002,35,17633
3003,41,17635
3004,87,17663
3005,64,17701
3006,111,17712
3007,37,17713
3008,181,47410
3009,133,47412
3010,141,47413
3011,16,47415
3012,73,47421
3013,11,47422
3014,16,47428
3015,65,47440
3016,92,47441
3017,214,47442
3018,119,47446
3019,7,47450
3020,133,47451
3021,150,47460
3022,216,47466
3023,55,47467
3024,64,47475
3025,167,47477
3026,35,47478
3027,12,47480
3028,124,47481
3029,87,47482
3030,78,47491
3031,111,47499
3032,114,47501
3033,204,47503
3034,134,47504
3035,68,47505
3036,49,47510
3037,193,47519
3038,220,47520
3039,103,47526
3040,217,38487
3041,62,38490
3042,56,38493
3043,121,38495
3044,143,38502
3045,84,38508
3046,212,38517
3047,4,38521
3048,213,38522
3049,100,38529
3050,106,38534
3051,208,38540
3052,73,38542
3053,216,38543
3054,116,38548
3055,216,38549
3056,131,38552
3057,76,38555
3058,17,38561
3059,3,38565
3060,179,38571
3061,71,38572
3062,125,38579
3063,138,38588
3064,134,38594
3065,82,38602
3066,104,38605
3067,106,38608
3068,41,38609
3069,217,38611
3070,106,38618
3071,217,38620
3072,123,27781
3073,116,27786
3074,220,27804
3075,79,27815
3076,13,27824
3077,50,27831
3078,216,27844
3079,141,27850
3080,19,27864
3081,113,27866
3082,38,27870
3083,100,27872
3084,17,27874
3085,132,27876
3086,139,27882
3087,52,27891
3088,131,27898
3089,68,27900
3090,77,27905
3091,213,27907
3092,123,27910
3093,129,27915
3094,71,27919
3095,54,27924
3096,121,27928
3097,65,27930
3098,12,27942
3099,34,27948
3100,54,27952
3101,50,27958
3102,31,27965
3103,217,27972
3104,8,55253
3105,193,55255
3106,99,55258
3107,27,55260
3108,209,55263
3109,87,55264
3110,135,55266
3111,96,55267
3112,91,55276
3113,14,55277
3114,91,55278
3115,34,55279
3116,96,55280
3117,91,55281
3118,84,55282
3119,13,55289
3120,208,55293
3121,40,55296
3122,94,55299
3123,41,55302
3124,96,55305
3125,207,55310
3126,87,55311
3127,89,55312
3128,34,55313
3129,66,55314
3130,204,55316
3131,78,55318
3132,46,55319
3133,10,55322
3134,77,55325
3135,73,55330
3136,4,26386
3137,113,26389
3138,70,26398
3139,198,26404
3140,108,26406
3141,23,26425
3142,26,26431
3143,195,26438
3144,99,26443
3145,207,26451
3146,137,26456
3147,96,26462
3148,70,26467
3149,211,26476
3150,207,26483
3151,208,26484
3152,77,26486
3153,7,26500
3154,163,26512
3155,106,26514
3156,27,26517
3157,69,26522
3158,16,26523
3159,4,26524
3160,71,26536
3161,91,26550
3162,195,26555
3163,8,26563
3164,140,26568
3165,12,26570
3166,99,26571
3167,135,26598
3168,97,49068
3169,8,49071
3170,35,49101
3171,131,49110
3172,94,49111
3173,53,49115
3174,58,49120
3175,208,49122
3176,73,49150
3177,24,49165
3178,123,49168
3179,124,49174
3180,65,49222
3181,35,49230
3182,140,49257
3183,104,49317
3184,84,49326
3185,46,49436
3186,217,49439
3187,32,49481
3188,123,49490
3189,11,49517
3190,7,49527
3191,111,49580
3192,116,49640
3193,124,49662
3194,179,49755
3195,127,49761
3196,94,49774
3197,35,49793
3198,139,49801
3199,4,49804
3200,34,38760
3201,99,38767
3202,23,38771
3203,135,38773
3204,124,38781
3205,155,38784
3206,6,38785
3207,24,38790
3208,7,38793
3209,209,38798
3210,77,38799
3211,139,38803
3212,37,38815
3213,70,38821
3214,3,38823
3215,127,38824
3216,27,38839
3217,53,38840
3218,76,38844
3219,4,38853
3220,93,38855
3221,212,38861
3222,65,38867
3223,53,38878
3224,43,38879
3225,80,38889
3226,115,38892
3227,17,38899
3228,49,38901
3229,71,38903
3230,132,38909
3231,94,38911
3232,112,24873
3233,94,24876
3234,125,24880
3235,35,24904
3236,44,24940
3237,138,24951
3238,94,24955
3239,42,24978
3240,20,24980
3241,207,24981
3242,173,24982
3243,88,24988
3244,104,25013
3245,139,25016
3246,118,25074
3247,207,25097
3248,35,25119
3249,193,25147
3250,41,25158
3251,115,25160
3252,70,25172
3253,19,25224
3254,209,25239
3255,143,25353
3256,52,25360
3257,64,25391
3258,70,25392
3259,99,25422
3260,24,25428
3261,0,25459
3262,216,25471
3263,111,25495
3264,10,18251
3265,17,18455
3266,42,18457
3267,58,18472
3268,70,18527
3269,81,18574
3270,173,18717
3271,125,18844
3272,79,18857
3273,121,18989
3274,108,19024
3275,36,19206
3276,80,19209
3277,207,19321
3278,118,19374
3279,198,19436
3280,96,19438
3281,138,19487
3282,35,19525
3283,72,19552
3284,114,19573
3285,173,19620
3286,0,19639
3287,71,19667
3288,20,19686
3289,131,19801
3290,53,19837
3291,86,19883
3292,58,19947
3293,143,19963
3294,124,20119
3295,93,20424
3296,89,19995
3297,130,20541
3298,136,20706
3299,16,20787
3300,106,20831
3301,220,21690
3302,132,21735
3303,198,22164
3304,87,33347
3305,111,34791
3306,167,92
3307,98,111
3308,4,113
3309,207,141
3310,23,154
3311,83,207
3312,137,234
3313,82,256
3314,118,269
3315,35,287
3316,67,348
3317,107,393
3318,94,430
3319,128,444
3320,125,453
3321,78,454
3322,0,470
3323,41,548
3324,62,561
3325,9,574
3326,44,587
3327,115,617
3328,81,33695
3329,44,33704
3330,63,33709
3331,115,33726
3332,213,33728
3333,99,33745
3334,82,33746
3335,86,33768
3336,113,33806
3337,45,33817
3338,134,33825
3339,138,33831
3340,209,33848
3341,95,33850
3342,67,33853
3343,208,33861
3344,52,33886
3345,26,33891
3346,75,33894
3347,107,33902
3348,7,33903
3349,96,33907
3350,124,33910
3351,37,33911
3352,118,33933
3353,31,33946
3354,14,33955
3355,92,33960
3356,84,33978
3357,35,33996
3358,198,34007
3359,212,34018
3360,81,47498
3361,0,47500
3362,113,47506
3363,76,47513
3364,16,47516
3365,131,47518
3366,35,47530
3367,61,47532
3368,19,47536
3369,88,47538
3370,179,47539
3371,179,47547
3372,24,47555
3373,21,47558
3374,202,47563
3375,204,47575
3376,204,47579
3377,97,47582
3378,42,47585
3379,65,47586
3380,35,47589
3381,127,47592
3382,64,47593
3383,127,47600
3384,87,47602
3385,97,47606
3386,65,47621
3387,135,47622
3388,58,47624
3389,62,47627
3390,143,47636
3391,55,47638
3392,42,42402
3393,80,42407
3394,41,42409
3395,116,42418
3396,87,42421
3397,125,42427
3398,81,42436
3399,118,42447
3400,52,42459
3401,87,42460
3402,179,42478
3403,8,42479
3404,78,42480
3405,41,42481
3406,120,42483
3407,124,42486
3408,87,42487
3409,71,42494
3410,57,42509
3411,69,42513
3412,115,42519
3413,78,42524
3414,130,42526
3415,216,42556
3416,83,42559
3417,204,42563
3418,134,42566
3419,37,42571
3420,87,42574
3421,19,42590
3422,70,42592
3423,123,42601
3424,217,50080
3425,1,50082
3426,220,50085
3427,131,50086
3428,198,50092
3429,6,50095
3430,137,50097
3431,70,50098
3432,103,50100
3433,217,50107
3434,107,50108
3435,204,50109
3436,61,50110
3437,34,50111
3438,67,50119
3439,47,50122
3440,198,50124
3441,180,50126
3442,179,50127
3443,87,50129
3444,10,50131
3445,24,50132
3446,94,50134
3447,68,50142
3448,204,50143
3449,94,50145
3450,18,50147
3451,179,50148
3452,0,50151
3453,209,50152
3454,28,50155
3455,82,50159
3456,128,52051
3457,118,52054
3458,128,52056
3459,70,52065
3460,47,52066
3461,126,52069
3462,101,52071
3463,13,52077
3464,193,52089
3465,51,52097
3466,34,52100
3467,119,52105
3468,70,52111
3469,73,52117
3470,92,52129
3471,63,52130
3472,2,52145
3473,72,52156
3474,220,52158
3475,127,52161
3476,139,52191
3477,70,52205
3478,217,52210
3479,138,52230
3480,66,52236
3481,132,52250
3482,84,52266
3483,43,52276
3484,134,52283
3485,34,52284
3486,70,52290
3487,208,52292
3488,52,36534
3489,98,36539
3490,114,36540
3491,16,36544
3492,208,36553
3493,204,36559
3494,193,36574
3495,137,36576
3496,71,36595
3497,181,36596
3498,121,36599
3499,7,36603
3500,115,36605
3501,87,36606
3502,214,36613
3503,100,36614
3504,0,36625
3505,125,36637
3506,2,36639
3507,77,36649
3508,20,36676
3509,209,36681
3510,36,36689
3511,198,36696
3512,45,36697
3513,69,36700
3514,27,36703
3515,35,36704
3516,207,36705
3517,84,36708
3518,124,36711
3519,41,36719
3520,127,15135
3521,204,15151
3522,31,15204
3523,106,15209
3524,114,15270
3525,213,15271
3526,123,15287
3527,70,15293
3528,141,15295
3529,35,15300
3530,42,15305
3531,198,15335
3532,7,15338
3533,138,15351
3534,47,15360
3535,179,15393
3536,204,15398
3537,4,15428
3538,84,15444
3539,139,15464
3540,92,15521
3541,17,15522
3542,124,15527
3543,19,15562
3544,42,15564
3545,40,15569
3546,111,15570
3547,46,15572
3548,109,15603
3549,217,15650
3550,216,15682
3551,13,15718
3552,204,21500
3553,125,21505
3554,49,21534
3555,76,21537
3556,70,21542
3557,66,21551
3558,82,21552
3559,123,21563
3560,195,21569
3561,70,21576
3562,217,21579
3563,78,21589
3564,207,21592
3565,180,21602
3566,117,21616
3567,209,21631
3568,64,21641
3569,112,21642
3570,115,21654
3571,64,21658
3572,129,21661
3573,217,21669
3574,21,21672
3575,58,21677
3576,40,21692
3577,51,21694
3578,119,21696
3579,49,21698
3580,5,21701
3581,16,21703
3582,193,21706
3583,65,21708
3584,118,13780
3585,211,13818
3586,68,13822
3587,78,13823
3588,209,13845
3589,73,13855
3590,132,13858
3591,43,13871
3592,93,13881
3593,193,13903
3594,35,13912
3595,108,13949
3596,77,13981
3597,13,13987
3598,37,14021
3599,57,14036
3600,18,14083
3601,94,14094
3602,78,14168
3603,9,14208
3604,71,14237
3605,9,14242
3606,53,14270
3607,88,14293
3608,216,14302
3609,179,14322
3610,131,14349
3611,72,14353
3612,68,14365
3613,3,14389
3614,24,14410
3615,13,14415
3616,70,55499
3617,2,55500
3618,137,55504
3619,14,55505
3620,208,55508
3621,20,55511
3622,129,55512
3623,30,55514
3624,28,55515
3625,216,55518
3626,128,55523
3627,155,55525
3628,13,55527
3629,76,55534
3630,124,55535
3631,123,55540
3632,204,55541
3633,41,55544
3634,125,55545
3635,64,55546
3636,99,55547
3637,42,55556
3638,67,55560
3639,70,55562
3640,12,55564
3641,55,55565
3642,212,55566
3643,198,55567
3644,6,55574
3645,31,55575
3646,198,55577
3647,101,55584
3648,134,57382
3649,135,57389
3650,70,57394
3651,84,57407
3652,1,57408
3653,76,57413
3654,7,57415
3655,17,57421
3656,84,57424
3657,104,57427
3658,193,57429
3659,130,57433
3660,75,57434
3661,124,57439
3662,47,57442
3663,23,57445
3664,34,57446
3665,19,57452
3666,103,57454
3667,36,57455
3668,209,57458
3669,51,57461
3670,99,57462
3671,73,57464
3672,124,57466
3673,138,57467
3674,167,57469
3675,108,57479
3676,21,57480
3677,121,57484
3678,118,57488
3679,128,57489
3680,16,51684
3681,117,51686
3682,97,51694
3683,99,51699
3684,216,51700
3685,217,51709
3686,41,51711
3687,62,51715
3688,124,51717
3689,57,51730
3690,116,51732
3691,46,51734
3692,86,51736
3693,64,51744
3694,84,51749
3695,109,51754
3696,111,51776
3697,24,51783
3698,198,51792
3699,204,51798
3700,139,51801
3701,204,51802
3702,65,51803
3703,20,51804
3704,136,51808
3705,37,51814
3706,28,51816
3707,84,51821
3708,107,51834
3709,14,51837
3710,63,51840
3711,91,51844
3712,216,53584
3713,69,53585
3714,140,53586
3715,125,53587
3716,7,53588
3717,6,53591
3718,211,53594
3719,92,53595
3720,20,53599
3721,208,53600
3722,209,53603
3723,41,53604
3724,97,53609
3725,115,53610
3726,83,53613
3727,75,53619
3728,193,53620
3729,124,53622
3730,44,53624
3731,108,53625
3732,139,53628
3733,20,53629
3734,38,53632
3735,66,53635
3736,209,53636
3737,51,53638
3738,31,53639
3739,213,53641
3740,82,53645
3741,73,53647
3742,71,53650
3743,123,53651
3744,16,40488
3745,140,40490
3746,204,40493
3747,216,40497
3748,7,40502
3749,43,40511
3750,35,40517
3751,209,40518
3752,73,40520
3753,45,40525
3754,34,40531
3755,28,40532
3756,61,40537
3757,104,40538
3758,45,40540
3759,82,40542
3760,130,40543
3761,220,40546
3762,47,40548
3763,208,40550
3764,131,40552
3765,106,40556
3766,204,40559
3767,207,40564
3768,60,40566
3769,100,40570
3770,207,40579
3771,123,40584
3772,99,40585
3773,119,40586
3774,25,40594
3775,198,40601
3776,173,2882
3777,70,2887
3778,91,2889
3779,62,2895
3780,35,2903
3781,33,2919
3782,116,2939
3783,84,2955
3784,20,2956
3785,211,2989
3786,179,2991
3787,64,3010
3788,140,3034
3789,66,3084
3790,212,3098
3791,121,3167
3792,204,3198
3793,58,3204
3794,95,3218
3795,57,3224
3796,73,3226
3797,135,3230
3798,52,3296
3799,82,3363
3800,12,3403
3801,34,3411
3802,53,3446
3803,167,3449
3804,79,3484
3805,120,3492
3806,141,3527
3807,129,3528
3808,130,59803
3809,55,59804
3810,67,59806
3811,8,59807
3812,106,59808
3813,158,59809
3814,84,59810
3815,53,59811
3816,131,59814
3817,217,59816
3818,140,59817
3819,204,59819
3820,198,59820
3821,135,59824
3822,204,59828
3823,117,59829
3824,30,59831
3825,107,59832
3826,195,59833
3827,107,59834
3828,220,59835
3829,220,59836
3830,106,59837
3831,91,59839
3832,59,59841
3833,94,59842
3834,101,59843
3835,62,59844
3836,107,59845
3837,181,59846
3838,16,59847
3839,108,59850
3840,88,46245
3841,40,46246
3842,42,46248
3843,100,46250
3844,96,46251
3845,17,46252
3846,217,46254
3847,55,46263
3848,59,46264
3849,209,46271
3850,68,46276
3851,87,46277
3852,92,46281
3853,116,46282
3854,9,46286
3855,109,46287
3856,57,46302
3857,8,46307
3858,49,46312
3859,97,46315
3860,88,46316
3861,106,46320
3862,214,46321
3863,64,46323
3864,13,46327
3865,44,46328
3866,47,46330
3867,123,46331
3868,121,46338
3869,98,46341
3870,209,46342
3871,52,46343
3872,109,46063
3873,70,46065
3874,43,46079
3875,204,46080
3876,143,46082
3877,21,46089
3878,130,46091
3879,99,46093
3880,77,46096
3881,17,46103
3882,127,46105
3883,116,46109
3884,204,46114
3885,29,46124
3886,193,46126
3887,84,46130
3888,111,46135
3889,51,46138
3890,62,46141
3891,52,46156
3892,58,46162
3893,213,46169
3894,130,46171
3895,2,46176
3896,3,46177
3897,32,46179
3898,34,46188
3899,76,46190
3900,37,46198
3901,76,46201
3902,135,46205
3903,181,46209
3904,207,14414
3905,76,14418
3906,6,14478
3907,64,14495
3908,101,14530
3909,134,14536
3910,116,14550
3911,57,14564
3912,180,14573
3913,207,14578
3914,131,14581
3915,139,14594
3916,88,14615
3917,101,14616
3918,125,14619
3919,123,14632
3920,92,14639
3921,79,14644
3922,96,14646
3923,31,14650
3924,118,14652
3925,63,14656
3926,126,14685
3927,58,14699
3928,163,14701
3929,43,14706
3930,193,14709
3931,35,14711
3932,88,14718
3933,71,14722
3934,63,14731
3935,34,14732
3936,0,59607
3937,115,59618
3938,92,59644
3939,48,59648
3940,193,59670
3941,106,59672
3942,136,59686
3943,220,59732
3944,126,59743
3945,96,59762
3946,64,59812
3947,204,59813
3948,213,59818
3949,126,59821
3950,87,59838
3951,53,59872
3952,82,59874
3953,129,59881
3954,129,59884
3955,34,59886
3956,66,59893
3957,126,59898
3958,127,59991
3959,1,60030
3960,195,60064
3961,116,60126
3962,134,60151
3963,58,60189
3964,79,60192
3965,65,60208
3966,64,60228
3967,113,60276
3968,141,16492
3969,68,16503
3970,181,16511
3971,217,16520
3972,137,16527
3973,124,16531
3974,107,16547
3975,207,16555
3976,19,16567
3977,84,16573
3978,138,16578
3979,198,16579
3980,35,16580
3981,128,16596
3982,21,16601
3983,73,16628
3984,11,16651
3985,90,16652
3986,35,16661
3987,139,16686
3988,70,16692
3989,70,16709
3990,32,16712
3991,82,16743
3992,19,16764
3993,52,16765
3994,217,16767
3995,84,16781
3996,82,16792
3997,95,16803
3998,12,16808
3999,79,16818
4000,87,9314
4001,7,9319
4002,64,9326
4003,8,9336
4004,38,9350
4005,198,9387
4006,8,9464
4007,220,9528
4008,52,9556
4009,204,9593
4010,24,9646
4011,70,9658
4012,120,9693
4013,40,9731
4014,45,9736
4015,94,9768
4016,59,9789
4017,112,9809
4018,73,9826
4019,36,9828
4020,124,9838
4021,47,9843
4022,28,9851
4023,8,9882
4024,125,9891
4025,207,9927
4026,41,9939
4027,77,9941
4028,138,9959
4029,204,9963
4030,29,9983
4031,104,9998
4032,84,59559
4033,11,59560
4034,167,59562
4035,106,59563
4036,141,59565
4037,125,59566
4038,202,59568
4039,96,59569
4040,55,59570
4041,133,59571
4042,34,59572
4043,88,59573
4044,131,59576
4045,216,59577
4046,66,59578
4047,204,59579
4048,208,59582
4049,219,59588
4050,104,59589
4051,45,59590
4052,110,59591
4053,86,59592
4054,88,59593
4055,118,59595
4056,64,59596
4057,59,59597
4058,139,59599
4059,158,59600
4060,87,59603
4061,24,59605
4062,35,59606
4063,181,59608
4064,62,40071
4065,17,40073
4066,173,40091
4067,58,40110
4068,140,40129
4069,185,40151
4070,0,40152
4071,37,40160
4072,12,40162
4073,35,40163
4074,92,40167
4075,78,40172
4076,21,40184
4077,21,40188
4078,127,40201
4079,14,40202
4080,67,40207
4081,131,40210
4082,26,40211
4083,216,40213
4084,3,40220
4085,213,40224
4086,49,40226
4087,35,40228
4088,97,40233
4089,216,40262
4090,70,40265
4091,179,40268
4092,27,40279
4093,41,40281
4094,217,40282
4095,125,40285
4096,127,39930
4097,137,39936
4098,217,39939
4099,179,39940
4100,98,39943
4101,208,39944
4102,6,39952
4103,77,39955
4104,198,39957
4105,91,39971
4106,20,39973
4107,82,39974
4108,9,39981
4109,52,39982
4110,204,39983
4111,28,39987
4112,31,39989
4113,65,39994
4114,214,40004
4115,139,40005
4116,84,40008
4117,118,40009
4118,72,40013
4119,34,40030
4120,8,40037
4121,198,40039
4122,185,40043
4123,13,40045
4124,195,40046
4125,77,40048
4126,47,40052
4127,120,40057
4128,34,21724
4129,81,21748
4130,8,21762
4131,73,21763
4132,55,21780
4133,15,21783
4134,8,21805
4135,11,21809
4136,214,21816
4137,79,21820
4138,132,21846
4139,113,21852
4140,193,21853
4141,179,21856
4142,134,21859
4143,41,21863
4144,128,21884
4145,91,21889
4146,116,21943
4147,58,21944
4148,121,21945
4149,83,21956
4150,173,21977
4151,213,21979
4152,193,21992
4153,100,21999
4154,129,22002
4155,18,22018
4156,98,22024
4157,93,22043
4158,108,22094
4159,87,22096
4160,11,57595
4161,40,57642
4162,61,58062
4163,46,58153
4164,9,58581
4165,133,58589
4166,8,457
4167,3,480
4168,40,500
4169,19,522
4170,81,644
4171,179,658
4172,86,682
4173,41,810
4174,41,819
4175,167,913
4176,77,933
4177,130,1569
4178,93,1595
4179,124,2338
4180,111,2378
4181,45,2556
4182,76,3340
4183,52,3371
4184,21,3486
4185,19,3522
4186,9,3677
4187,113,4468
4188,54,4956
4189,141,4978
4190,51,4980
4191,120,5015
4192,130,33315
4193,60,33409
4194,173,33422
4195,100,33503
4196,121,33504
4197,179,33572
4198,13,33648
4199,100,33794
4200,140,33884
4201,141,33974
4202,34,34035
4203,110,34089
4204,52,34161
4205,35,34203
4206,115,34241
4207,82,34266
4208,62,34309
4209,204,34343
4210,27,34372
4211,20,34383
4212,204,34580
4213,208,34585
4214,107,34617
4215,133,34692
4216,68,34722
4217,19,34833
4218,70,34861
4219,106,34897
4220,91,34905
4221,134,34997
4222,124,35073
4223,97,35127
4224,8,11768
4225,111,11776
4226,35,11785
4227,83,11787
4228,212,11813
4229,211,11845
4230,41,11874
4231,92,11887
4232,11,11889
4233,34,11899
4234,216,11900
4235,208,11905
4236,0,11909
4237,8,11917
4238,220,11921
4239,77,11926
4240,38,11927
4241,86,11935
4242,45,11938
4243,132,11975
4244,19,11981
4245,173,12000
4246,70,12007
4247,123,12040
4248,124,12044
4249,59,12047
4250,94,12053
4251,73,12060
4252,204,12071
4253,111,12084
4254,88,12091
4255,111,12126
4256,64,16851
4257,73,16867
4258,124,16875
4259,181,16879
4260,13,16881
4261,62,16898
4262,64,16918
4263,40,16919
4264,87,16931
4265,84,16942
4266,207,16948
4267,101,16949
4268,73,16955
4269,109,16959
4270,83,16975
4271,43,17014
4272,179,17034
4273,139,17043
4274,23,17061
4275,140,17072
4276,134,17073
4277,4,17087
4278,179,17090
4279,78,17129
4280,137,17155
4281,214,17164
4282,51,17168
4283,124,17172
4284,106,17174
4285,115,17180
4286,4,17185
4287,61,17195
4288,204,12644
4289,58,12661
4290,209,12681
4291,204,12683
4292,64,12685
4293,126,12727
4294,106,12736
4295,77,12742
4296,31,12759
4297,4,12763
4298,12,12779
4299,42,12787
4300,76,12788
4301,139,12792
4302,35,12803
4303,116,12811
4304,66,12825
4305,64,12849
4306,127,12864
4307,52,12871
4308,30,12884
4309,136,12890
4310,140,12895
4311,69,12898
4312,179,12904
4313,193,12929
4314,49,12954
4315,136,12958
4316,8,12968
4317,40,12977
4318,87,13013
4319,185,13021
4320,119,618
4321,8,629
4322,8,662
4323,76,664
4324,134,707
4325,114,721
4326,36,755
4327,131,791
4328,6,867
4329,19,878
4330,23,884
4331,8,885
4332,43,894
4333,108,897
4334,99,907
4335,82,912
4336,209,928
4337,91,930
4338,83,937
4339,113,940
4340,12,966
4341,26,1058
4342,120,1115
4343,70,1136
4344,212,1171
4345,58,1179
4346,135,1288
4347,207,1336
4348,68,1355
4349,61,1407
4350,138,1418
4351,107,1421
4352,69,4379
4353,125,4381
4354,6,4391
4355,198,4395
4356,87,4398
4357,70,4430
4358,207,4449
4359,19,4464
4360,180,4470
4361,134,4471
4362,63,4479
4363,158,4525
4364,212,4532
4365,158,4546
4366,46,4570
4367,19,4576
4368,4,4589
4369,195,4599
4370,208,4605
4371,81,4626
4372,113,4629
4373,47,4632
4374,52,4636
4375,91,4638
4376,132,4640
4377,100,4645
4378,78,4660
4379,72,4689
4380,127,4691
4381,3,4693
4382,36,4694
4383,135,4696
4384,41,38525
4385,70,38537
4386,58,38551
4387,78,38570
4388,70,38580
4389,64,38600
4390,58,38601
4391,136,38616
4392,73,38624
4393,12,38635
4394,96,38643
4395,53,38660
4396,128,38688
4397,127,38693
4398,216,38702
4399,96,38709
4400,94,38718
4401,19,38723
4402,88,38737
4403,204,38763
4404,127,38775
4405,16,38795
4406,163,38800
4407,198,38801
4408,34,38810
4409,135,38812
4410,220,38818
4411,65,38826
4412,58,38828
4413,68,38830
4414,220,38865
4415,24,38874
4416,94,34757
4417,204,34775
4418,134,34782
4419,85,34801
4420,207,34802
4421,68,34806
4422,193,34819
4423,132,34824
4424,28,34831
4425,12,34832
4426,32,34839
4427,78,34851
4428,108,34853
4429,220,34859
4430,135,34866
4431,139,34874
4432,141,34899
4433,0,34907
4434,101,34913
4435,24,34922
4436,6,34924
4437,27,34927
4438,92,34937
4439,20,34943
4440,17,34948
4441,138,34968
4442,51,34978
4443,136,34979
4444,108,34984
4445,217,34987
4446,42,34991
4447,53,34993
4448,65,59349
4449,93,59350
4450,97,59351
4451,208,59352
4452,163,59353
4453,135,59354
4454,17,59355
4455,32,59356
4456,97,59357
4457,216,59358
4458,4,59360
4459,64,59361
4460,173,59362
4461,198,59363
4462,83,59366
4463,217,59374
4464,80,59375
4465,214,59376
4466,35,59379
4467,75,59380
4468,20,59381
4469,216,59382
4470,68,59383
4471,140,59384
4472,27,59385
4473,78,59387
4474,35,59389
4475,16,59392
4476,204,59393
4477,52,59394
4478,217,59395
4479,7,59396
4480,32,4994
4481,0,5005
4482,123,5069
4483,0,5072
4484,51,5074
4485,71,5089
4486,91,5119
4487,92,5202
4488,0,5242
4489,32,5256
4490,117,5307
4491,41,5323
4492,70,5326
4493,217,5334
4494,121,5341
4495,132,5344
4496,41,5347
4497,1,5355
4498,33,5360
4499,81,5366
4500,100,5398
4501,99,5403
4502,8,5410
4503,131,5422
4504,118,5465
4505,217,5468
4506,212,5499
4507,131,5502
4508,131,5543
4509,68,5551
4510,32,5562
4511,8,5583
4512,140,8417
4513,124,8420
4514,179,8472
4515,98,8495
4516,49,8588
4517,129,8637
4518,70,8656
4519,19,8658
4520,64,8679
4521,133,8708
4522,134,8709
4523,16,8724
4524,0,8786
4525,83,8817
4526,15,8824
4527,32,8882
4528,98,8892
4529,49,8969
4530,40,8981
4531,49,8983
4532,27,9064
4533,70,9080
4534,53,9090
4535,28,9105
4536,195,9107
4537,127,9115
4538,34,9144
4539,113,9152
4540,94,9172
4541,24,9177
4542,141,9186
4543,141,9193
4544,51,10958
4545,8,10961
4546,94,10976
4547,19,11007
4548,72,11009
4549,72,11010
4550,67,11064
4551,220,11066
4552,39,11071
4553,83,11079
4554,66,11113
4555,17,11117
4556,96,11139
4557,12,11159
4558,82,11161
4559,208,11162
4560,193,11176
4561,41,11185
4562,217,11196
4563,134,11199
4564,193,11223
4565,125,11228
4566,14,11231
4567,217,11232
4568,52,11236
4569,47,11287
4570,57,11333
4571,84,11337
4572,137,11342
4573,204,11362
4574,4,11371
4575,55,11375
4576,179,42721
4577,87,42728
4578,65,42748
4579,217,42754
4580,68,42756
4581,45,42767
4582,34,42770
4583,58,42784
4584,12,42799
4585,135,42808
4586,202,42827
4587,101,42835
4588,118,42836
4589,19,42852
4590,37,42861
4591,113,42905
4592,198,42906
4593,207,42911
4594,45,42919
4595,103,42926
4596,82,42928
4597,82,42941
4598,32,42943
4599,220,42972
4600,125,43001
4601,6,43008
4602,127,43023
4603,217,43048
4604,97,43075
4605,125,43092
4606,61,43095
4607,3,43130
4608,110,38065
4609,84,38068
4610,209,38073
4611,13,38083
4612,204,38089
4613,116,38090
4614,41,38112
4615,98,38118
4616,78,38119
4617,30,38120
4618,204,38122
4619,133,38147
4620,35,38167
4621,61,38189
4622,31,38201
4623,20,38202
4624,127,38205
4625,123,38206
4626,58,38208
4627,26,38213
4628,41,38234
4629,23,38240
4630,125,38243
4631,9,38249
4632,104,38250
4633,65,38255
4634,62,38257
4635,65,38258
4636,124,38259
4637,133,38265
4638,212,38266
4639,207,38277
4640,20,40734
4641,55,40736
4642,65,40737
4643,213,40740
4644,68,40747
4645,73,40750
4646,119,40751
4647,23,40754
4648,117,40756
4649,41,40757
4650,42,40762
4651,106,40763
4652,198,40774
4653,112,40784
4654,75,40791
4655,57,40794
4656,42,40804
4657,19,40808
4658,13,40810
4659,130,40812
4660,123,40822
4661,209,40824
4662,123,40825
4663,31,40830
4664,65,40831
4665,35,40833
4666,99,40834
4667,7,40843
4668,68,40845
4669,93,40850
4670,104,40852
4671,41,40854
4672,92,18915
4673,47,18918
4674,204,18948
4675,0,18951
4676,71,18955
4677,70,18962
4678,109,18967
4679,55,18972
4680,66,18992
4681,123,19002
4682,118,19025
4683,204,19046
4684,12,19050
4685,114,19059
4686,217,19060
4687,62,19088
4688,46,19102
4689,76,19115
4690,3,19118
4691,117,19136
4692,179,19139
4693,143,19144
4694,134,19163
4695,47,19175
4696,128,19189
4697,106,19197
4698,94,19213
4699,65,19216
4700,220,19226
4701,92,19232
4702,34,19233
4703,214,19245
4704,79,45269
4705,220,45270
4706,81,45281
4707,208,45282
4708,62,45287
4709,208,45290
4710,3,45294
4711,116,45296
4712,20,45297
4713,59,45302
4714,35,45303
4715,19,45306
4716,103,45308
4717,114,45309
4718,129,45310
4719,84,45312
4720,116,45319
4721,74,45320
4722,107,45322
4723,134,45323
4724,55,45326
4725,27,45327
4726,88,45329
4727,35,45333
4728,198,45336
4729,208,45338
4730,73,45344
4731,13,45345
4732,71,45346
4733,220,45347
4734,216,45349
4735,71,45352
4736,92,26435
4737,220,26439
4738,140,26441
4739,128,26448
4740,54,26449
4741,204,26452
4742,60,26453
4743,99,26454
4744,77,26465
4745,60,26468
4746,220,26473
4747,213,26498
4748,39,26516
4749,124,26518
4750,87,26525
4751,35,26529
4752,17,26541
4753,130,26543
4754,220,26544
4755,131,26548
4756,128,26553
4757,119,26564
4758,28,26565
4759,96,26574
4760,220,26576
4761,198,26577
4762,131,26580
4763,132,26583
4764,42,26592
4765,111,26596
4766,101,26601
4767,137,26608
4768,195,47844
4769,213,47847
4770,8,47849
4771,106,47851
4772,82,47858
4773,52,47859
4774,207,47861
4775,2,47863
4776,128,47868
4777,29,47869
4778,66,47876
4779,24,47880
4780,211,47882
4781,84,47883
4782,8,47885
4783,72,47892
4784,62,47900
4785,85,47901
4786,64,47902
4787,8,47904
4788,156,47909
4789,68,47912
4790,135,47915
4791,92,47916
4792,8,47917
4793,198,47919
4794,37,47922
4795,208,47925
4796,60,47932
4797,119,47936
4798,173,47937
4799,207,47938
4800,163,21314
4801,104,21322
4802,44,21328
4803,28,21332
4804,212,21335
4805,111,21376
4806,71,21381
4807,99,21399
4808,37,21413
4809,79,21418
4810,130,21428
4811,2,21491
4812,55,21511
4813,43,21513
4814,119,21521
4815,3,21522
4816,211,21523
4817,104,21525
4818,42,21529
4819,202,21559
4820,106,21567
4821,99,21572
4822,77,21583
4823,12,21600
4824,68,21603
4825,106,21636
4826,108,21638
4827,41,21689
4828,47,21710
4829,134,21722
4830,106,21766
4831,58,21777
4832,35,54184
4833,116,54188
4834,30,54190
4835,207,54193
4836,88,54201
4837,76,54203
4838,110,54204
4839,155,54207
4840,70,54214
4841,126,54215
4842,28,54216
4843,30,54220
4844,98,54225
4845,45,54228
4846,88,54235
4847,10,54237
4848,75,54244
4849,173,54246
4850,8,54250
4851,111,54255
4852,24,54258
4853,213,54261
4854,179,54268
4855,220,54271
4856,66,54272
4857,179,54274
4858,70,54275
4859,135,54277
4860,14,54278
4861,213,54280
4862,68,54281
4863,73,54282
4864,32,56939
4865,127,56958
4866,17,56964
4867,125,56978
4868,2,56998
4869,16,57000
4870,207,57005
4871,43,57026
4872,47,57073
4873,19,57086
4874,87,57105
4875,87,57118
4876,3,57123
4877,111,57131
4878,12,57137
4879,212,57153
4880,107,57164
4881,112,57166
4882,138,57172
4883,204,57173
4884,132,57192
4885,137,57200
4886,181,57202
4887,0,57203
4888,47,57206
4889,116,57216
4890,118,57259
4891,87,57263
4892,73,57277
4893,70,57284
4894,92,57296
4895,21,57322
4896,42,56736
4897,58,56745
4898,19,56748
4899,73,56750
4900,127,56752
4901,179,56754
4902,181,56755
4903,46,56756
4904,133,56757
4905,79,56758
4906,119,56759
4907,7,56763
4908,213,56764
4909,193,56768
4910,26,56772
4911,104,56774
4912,96,56776
4913,84,56780
4914,78,56782
4915,128,56788
4916,35,56792
4917,136,56793
4918,40,56794
4919,116,56795
4920,84,56797
4921,54,56799
4922,108,56800
4923,19,56801
4924,78,56803
4925,21,56804
4926,46,56805
4927,0,56807
4928,61,13285
4929,8,13293
4930,29,13311
4931,220,13342
4932,51,13366
4933,16,13368
4934,79,13385
4935,40,13430
4936,208,13486
4937,53,13509
4938,103,13527
4939,29,13543
4940,3,13618
4941,52,13624
4942,44,13664
4943,137,13675
4944,117,13688
4945,12,13762
4946,118,13808
4947,71,13821
4948,24,13834
4949,34,13846
4950,114,13868
4951,109,13905
4952,83,13926
4953,46,13982
4954,20,14016
4955,78,14043
4956,128,14050
4957,173,14067
4958,92,14072
4959,220,14115
4960,97,19531
4961,111,19536
4962,35,19543
4963,82,19547
4964,13,19550
4965,19,19553
4966,70,19557
4967,217,19561
4968,70,19571
4969,207,19572
4970,213,19591
4971,76,19601
4972,29,19635
4973,49,19641
4974,59,19670
4975,69,19675
4976,141,19678
4977,207,19681
4978,12,19703
4979,78,19710
4980,211,19712
4981,16,19719
4982,109,19734
4983,128,19751
4984,92,19753
4985,214,19755
4986,11,19759
4987,114,19767
4988,87,19770
4989,41,19777
4990,9,19794
4991,195,19844
4992,8,3425
4993,34,3474
4994,58,3579
4995,68,3601
4996,68,3643
4997,140,3708
4998,173,3725
4999,29,3740
5000,207,3808
5001,78,3896
5002,80,3942
5003,49,3947
5004,92,3957
5005,0,4019
5006,40,4066
5007,111,4071
5008,128,4074
5009,124,4084
5010,118,4089
5011,79,4098
5012,100,4105
5013,43,4112
5014,173,4128
5015,211,4142
5016,220,4144
5017,141,4168
5018,68,4213
5019,78,4221
5020,106,4303
5021,8,4323
5022,107,4334
5023,95,4345
5024,51,45064
5025,27,45065
5026,209,45068
5027,27,45070
5028,78,45075
5029,38,45076
5030,109,45082
5031,41,45088
5032,181,45091
5033,107,45101
5034,58,45106
5035,19,45112
5036,94,45113
5037,59,45117
5038,133,45118
5039,17,45130
5040,92,45135
5041,135,45136
5042,35,45144
5043,91,45153
5044,60,45154
5045,108,45159
5046,81,45160
5047,217,45161
5048,47,45164
5049,209,45165
5050,136,45167
5051,134,45168
5052,6,45171
5053,4,45172
5054,193,45179
5055,35,45183
5056,124,8733
5057,204,8745
5058,12,8753
5059,173,8755
5060,0,8774
5061,71,8784
5062,91,8787
5063,61,8793
5064,40,8796
5065,9,8806
5066,13,8816
5067,83,8827
5068,207,8861
5069,98,8862
5070,44,8863
5071,4,8864
5072,216,8870
5073,131,8896
5074,43,8919
5075,104,8931
5076,2,8990
5077,173,9004
5078,84,9010
5079,115,9033
5080,3,9040
5081,55,9076
5082,91,9086
5083,207,9147
5084,2,9158
5085,61,9163
5086,100,9180
5087,34,9308
5088,70,56572
5089,65,56575
5090,88,56576
5091,100,56579
5092,211,56580
5093,31,56582
5094,109,56583
5095,180,56585
5096,40,56586
5097,3,56587
5098,41,56589
5099,35,56592
5100,58,56593
5101,113,56594
5102,173,56596
5103,96,56597
5104,28,56599
5105,12,56600
5106,73,56601
5107,116,56605
5108,126,56606
5109,4,56608
5110,104,56611
5111,138,56614
5112,5,56616
5113,198,56617
5114,82,56619
5115,63,56620
5116,193,56622
5117,64,56624
5118,42,56627
5119,0,56628
5120,128,32654
5121,132,32656
5122,125,32658
5123,207,32668
5124,129,32672
5125,68,32677
5126,181,32678
5127,209,32684
5128,57,32691
5129,198,32693
5130,28,32694
5131,98,32706
5132,43,32717
5133,207,32724
5134,7,32732
5135,33,32741
5136,204,32761
5137,82,32767
5138,108,32772
5139,119,32778
5140,193,32780
5141,5,32794
5142,195,32808
5143,94,32814
5144,104,32820
5145,16,32824
5146,65,32832
5147,208,32833
5148,52,32837
5149,141,32855
5150,211,32856
5151,129,32868
5152,193,11896
5153,19,12050
5154,111,12055
5155,6,12063
5156,64,12277
5157,17,12334
5158,49,12424
5159,140,12425
5160,198,12583
5161,180,12597
5162,121,12610
5163,66,12800
5164,97,12805
5165,220,12883
5166,59,13163
5167,214,13170
5168,16,13263
5169,108,13360
5170,204,13731
5171,193,13782
5172,198,13789
5173,63,13889
5174,135,14049
5175,81,14440
5176,18,14579
5177,64,14658
5178,17,14664
5179,13,14773
5180,202,14804
5181,87,14816
5182,70,14872
5183,193,15105
5184,193,40418
5185,214,40433
5186,43,40435
5187,167,40437
5188,81,40447
5189,64,40448
5190,20,40449
5191,220,40451
5192,35,40455
5193,114,40458
5194,137,40459
5195,114,40473
5196,4,40485
5197,163,40489
5198,30,40495
5199,78,40501
5200,78,40503
5201,58,40504
5202,40,40507
5203,99,40509
5204,98,40514
5205,128,40524
5206,19,40533
5207,30,40553
5208,204,40567
5209,119,40575
5210,79,40602
5211,42,40610
5212,42,40615
5213,167,40616
5214,126,40618
5215,96,40628
5216,72,45913
5217,141,45918
5218,47,45922
5219,55,45923
5220,54,45924
5221,134,45930
5222,98,45935
5223,64,45936
5224,132,45943
5225,212,45947
5226,14,45951
5227,155,45953
5228,181,45968
5229,96,45969
5230,211,45976
5231,101,45982
5232,35,45983
5233,91,45990
5234,97,45994
5235,58,45998
5236,49,45999
5237,120,46002
5238,43,46003
5239,35,46008
5240,128,46016
5241,52,46017
5242,49,46018
5243,127,46019
5244,107,46023
5245,0,46026
5246,96,46032
5247,217,46033
5248,47,47218
5249,108,47219
5250,123,47220
5251,63,47222
5252,114,47223
5253,8,47224
5254,69,47228
5255,138,47230
5256,12,47232
5257,3,47236
5258,78,47239
5259,24,47249
5260,116,47252
5261,131,47253
5262,138,47260
5263,76,47261
5264,78,47263
5265,64,47264
5266,125,47266
5267,118,47268
5268,0,47271
5269,98,47276
5270,131,47292
5271,109,47295
5272,143,47298
5273,133,47299
5274,79,47303
5275,17,47307
5276,144,47309
5277,207,47311
5278,44,47312
5279,84,47316
5280,11,31158
5281,94,31160
5282,127,31163
5283,55,31164
5284,6,31166
5285,42,31168
5286,2,31171
5287,84,31177
5288,136,31178
5289,63,31182
5290,4,31185
5291,180,31194
5292,103,31207
5293,123,31213
5294,214,31215
5295,98,31218
5296,43,31222
5297,107,31230
5298,52,31231
5299,124,31236
5300,179,31264
5301,65,31265
5302,81,31275
5303,37,31276
5304,185,31282
5305,103,31286
5306,37,31291
5307,33,31294
5308,204,31301
5309,107,31303
5310,81,31316
5311,115,31321
5312,119,50169
5313,78,50174
5314,99,50178
5315,44,50179
5316,87,50180
5317,118,50181
5318,4,50184
5319,217,50186
5320,193,50188
5321,84,50190
5322,140,50197
5323,57,50199
5324,134,50201
5325,123,50202
5326,78,50203
5327,68,50204
5328,61,50205
5329,128,50206
5330,5,50208
5331,214,50210
5332,61,50214
5333,139,50217
5334,155,50218
5335,12,50222
5336,118,50223
5337,70,50224
5338,135,50226
5339,93,50229
5340,93,50231
5341,109,50234
5342,108,50235
5343,73,50237
5344,60,51578
5345,81,51579
5346,14,51580
5347,16,51582
5348,81,51583
5349,8,51585
5350,119,51590
5351,111,51592
5352,98,51593
5353,11,51595
5354,204,51601
5355,88,51602
5356,68,51607
5357,43,51608
5358,131,51611
5359,73,51613
5360,132,51614
5361,87,51617
5362,50,51618
5363,134,51622
5364,41,51641
5365,173,51642
5366,42,51644
5367,94,51647
5368,42,51648
5369,208,51656
5370,93,51661
5371,127,51664
5372,32,51669
5373,126,51674
5374,83,51679
5375,35,51682
5376,41,50347
5377,214,50350
5378,34,50354
5379,134,50356
5380,108,50357
5381,173,50370
5382,179,50372
5383,138,50373
5384,107,50375
5385,128,50378
5386,220,50379
5387,8,50383
5388,127,50390
5389,125,50395
5390,163,50400
5391,46,50407
5392,88,50408
5393,17,50419
5394,139,50421
5395,67,50422
5396,60,50431
5397,19,50436
5398,61,50438
5399,73,50440
5400,217,50442
5401,173,50444
5402,123,50446
5403,217,50447
5404,82,50448
5405,65,50451
5406,137,50453
5407,90,50454
5408,87,54375
5409,118,54376
5410,193,54381
5411,131,54382
5412,120,54385
5413,193,54386
5414,16,54387
5415,180,54393
5416,108,54398
5417,24,54402
5418,116,54403
5419,47,54404
5420,4,54405
5421,37,54409
5422,141,54413
5423,209,54414
5424,213,54417
5425,163,54420
5426,116,54422
5427,72,54425
5428,139,54426
5429,132,54427
5430,138,54430
5431,61,54433
5432,60,54440
5433,45,54442
5434,106,54449
5435,61,54452
5436,57,54455
5437,217,54458
5438,220,54459
5439,207,54462
5440,207,14305
5441,117,14344
5442,21,14350
5443,78,14352
5444,220,14377
5445,72,14386
5446,94,14409
5447,70,14411
5448,64,14458
5449,135,14460
5450,76,14462
5451,107,14468
5452,19,14469
5453,107,14596
5454,82,14730
5455,94,14741
5456,111,14775
5457,0,14849
5458,217,14876
5459,217,14899
5460,99,14924
5461,217,14944
5462,158,15006
5463,69,15064
5464,131,15075
5465,134,15083
5466,61,15098
5467,63,15107
5468,7,15130
5469,212,15249
5470,62,15258
5471,140,15273
5472,97,56295
5473,23,56302
5474,42,56316
5475,73,56317
5476,53,56335
5477,64,56345
5478,60,56346
5479,26,56352
5480,111,56388
5481,108,56410
5482,58,56413
5483,40,56416
5484,62,56452
5485,56,56463
5486,127,56478
5487,129,56497
5488,138,56506
5489,113,56513
5490,6,56521
5491,91,56531
5492,19,56533
5493,8,56544
5494,107,56548
5495,73,56578
5496,51,56581
5497,208,56584
5498,208,56602
5499,20,56615
5500,60,56618
5501,34,56637
5502,63,56645
5503,173,56656
5504,128,14799
5505,108,14812
5506,65,14828
5507,52,14842
5508,25,14858
5509,70,14860
5510,213,14866
5511,8,14881
5512,37,14908
5513,90,14931
5514,124,14958
5515,179,14965
5516,198,14976
5517,138,14980
5518,65,15009
5519,97,15014
5520,117,15017
5521,55,15032
5522,70,15034
5523,121,15039
5524,110,15050
5525,131,15062
5526,207,15071
5527,195,15080
5528,116,15092
5529,70,15103
5530,208,15141
5531,141,15142
5532,65,15169
5533,16,15179
5534,96,15216
5535,195,15220
5536,28,48887
5537,69,48900
5538,52,48903
5539,70,48905
5540,167,48909
5541,54,48910
5542,81,48915
5543,75,48917
5544,16,48918
5545,84,48926
5546,42,48932
5547,94,48933
5548,204,48936
5549,220,48939
5550,20,48940
5551,78,48941
5552,19,48942
5553,87,48945
5554,58,48946
5555,220,48947
5556,19,48948
5557,181,48950
5558,77,48951
5559,70,48960
5560,9,48962
5561,34,48964
5562,140,48965
5563,137,48967
5564,70,48969
5565,76,48978
5566,133,48979
5567,97,48980
5568,84,10711
5569,72,10712
5570,41,10755
5571,76,10768
5572,107,10781
5573,139,10789
5574,84,10797
5575,20,10801
5576,195,10810
5577,220,10813
5578,91,10822
5579,193,10825
5580,21,10867
5581,75,10921
5582,131,10929
5583,127,10956
5584,40,10972
5585,28,10980
5586,128,10998
5587,52,11005
5588,5,11014
5589,126,11028
5590,195,11042
5591,103,11059
5592,204,11098
5593,209,11100
5594,130,11112
5595,100,11120
5596,141,11126
5597,41,11158
5598,198,11160
5599,66,11182
5600,35,12945
5601,104,12956
5602,64,12963
5603,81,12972
5604,195,12987
5605,99,13008
5606,124,13011
5607,198,13019
5608,136,13039
5609,106,13050
5610,71,13054
5611,108,13056
5612,179,13060
5613,20,13081
5614,136,13109
5615,88,13111
5616,43,13126
5617,77,13132
5618,96,13138
5619,173,13141
5620,214,13144
5621,208,13154
5622,59,13155
5623,20,13157
5624,135,13159
5625,17,13174
5626,195,13185
5627,106,13189
5628,37,13193
5629,87,13220
5630,193,13233
5631,48,13238
5632,198,32562
5633,198,32567
5634,81,32574
5635,167,32575
5636,42,32582
5637,71,32583
5638,12,32584
5639,108,32588
5640,49,32597
5641,41,32598
5642,97,32599
5643,9,32601
5644,47,32606
5645,198,32617
5646,179,32627
5647,47,32641
5648,70,32652
5649,135,32657
5650,61,32659
5651,73,32660
5652,69,32679
5653,43,32689
5654,59,32699
5655,7,32721
5656,52,32726
5657,16,32731
5658,99,32738
5659,41,32739
5660,212,32748
5661,35,32749
5662,82,32750
5663,68,32764
5664,4,24542
5665,128,24553
5666,137,24586
5667,134,24592
5668,204,24602
5669,76,24607
5670,123,24609
5671,75,24614
5672,198,24627
5673,52,24628
5674,131,24631
5675,66,24635
5676,193,24636
5677,17,24645
5678,123,24646
5679,124,24648
5680,167,24660
5681,81,24673
5682,107,24674
5683,21,24677
5684,127,24685
5685,34,24687
5686,193,24693
5687,2,24696
5688,141,24697
5689,31,24699
5690,68,24700
5691,97,24702
5692,141,24712
5693,127,24714
5694,3,24715
5695,213,24716
5696,207,26310
5697,26,26312
5698,108,26316
5699,90,26318
5700,58,26322
5701,40,26323
5702,124,26333
5703,129,26334
5704,71,26340
5705,127,26342
5706,211,26345
5707,61,26351
5708,38,26353
5709,94,26355
5710,32,26356
5711,130,26364
5712,31,26373
5713,53,26376
5714,12,26388
5715,4,26390
5716,127,26391
5717,28,26392
5718,70,26394
5719,131,26395
5720,202,26397
5721,45,26399
5722,61,26401
5723,204,26405
5724,73,26411
5725,212,26413
5726,135,26420
5727,39,26421
5728,12,47631
5729,63,47632
5730,208,47633
5731,103,47634
5732,27,47637
5733,58,47643
5734,213,47647
5735,35,47650
5736,49,47661
5737,3,47662
5738,93,47666
5739,12,47667
5740,51,47669
5741,58,47671
5742,123,47677
5743,173,47693
5744,205,47694
5745,61,47696
5746,64,47702
5747,212,47706
5748,128,47715
5749,65,47718
5750,133,47721
5751,195,47724
5752,94,47727
5753,59,47728
5754,96,47729
5755,23,47733
5756,29,47734
5757,97,47735
5758,216,47736
5759,214,47737
5760,94,48555
5761,134,48557
5762,116,48558
5763,136,48559
5764,15,48560
5765,70,48563
5766,109,48564
5767,10,48572
5768,179,48575
5769,106,48576
5770,82,48577
5771,170,48582
5772,108,48586
5773,81,48588
5774,57,48593
5775,76,48599
5776,78,48605
5777,0,48607
5778,116,48608
5779,138,48609
5780,86,48610
5781,52,48611
5782,195,48613
5783,180,48617
5784,134,48619
5785,69,48620
5786,23,48623
5787,208,48625
5788,211,48629
5789,214,48630
5790,126,48631
5791,171,48633
5792,35,44330
5793,139,44333
5794,99,44335
5795,87,44336
5796,68,44340
5797,110,44341
5798,54,44354
5799,209,44357
5800,44,44363
5801,124,44364
5802,58,44365
5803,216,44366
5804,207,44376
5805,111,44385
5806,80,44393
5807,10,44403
5808,41,44410
5809,163,44424
5810,208,44426
5811,128,44428
5812,78,44433
5813,120,44441
5814,96,44446
5815,131,44449
5816,55,44451
5817,61,44453
5818,14,44455
5819,72,44457
5820,51,44459
5821,78,44470
5822,14,44474
5823,173,44486
5824,81,50242
5825,77,50245
5826,42,50246
5827,29,50247
5828,82,50249
5829,195,50251
5830,30,50255
5831,20,50257
5832,217,50259
5833,91,50274
5834,58,50276
5835,87,50278
5836,135,50279
5837,220,50280
5838,125,50285
5839,62,50291
5840,131,50292
5841,62,50294
5842,179,50295
5843,130,50303
5844,58,50307
5845,137,50309
5846,51,50312
5847,132,50314
5848,87,50315
5849,21,50320
5850,59,50326
5851,29,50330
5852,88,50331
5853,35,50332
5854,181,50340
5855,99,50345
5856,13,4250
5857,135,4541
5858,4,4619
5859,131,4671
5860,16,4941
5861,158,5304
5862,117,5633
5863,99,5667
5864,129,5840
5865,111,6551
5866,28,6688
5867,163,6911
5868,103,6967
5869,61,10051
5870,6,10968
5871,94,11016
5872,87,12694
5873,106,13444
5874,35,17347
5875,0,30
5876,86,57
5877,57,126
5878,141,158
5879,57,162
5880,26,187
5881,123,211
5882,220,309
5883,13,580
5884,107,603
5885,204,726
5886,43,970
5887,78,979
5888,34,6674
5889,84,6681
5890,70,6708
5891,90,6845
5892,16,6868
5893,17,6926
5894,35,6998
5895,19,7032
5896,83,7367
5897,47,7546
5898,28,7896
5899,75,7924
5900,41,8293
5901,70,9079
5902,121,9189
5903,65,9244
5904,35,9740
5905,110,9774
5906,51,9861
5907,20,9906
5908,76,9930
5909,62,9974
5910,185,10061
5911,207,10077
5912,207,10149
5913,115,10167
5914,107,10262
5915,117,10270
5916,11,10361
5917,217,10365
5918,134,10437
5919,78,10492
5920,198,43280
5921,106,43288
5922,84,43292
5923,87,43293
5924,134,43298
5925,134,43299
5926,12,43301
5927,111,43302
5928,58,43306
5929,31,43310
5930,111,43321
5931,88,43327
5932,107,43335
5933,127,43344
5934,195,43347
5935,40,43350
5936,140,43351
5937,127,43352
5938,72,43353
5939,111,43355
5940,119,43365
5941,113,43372
5942,136,43373
5943,193,43377
5944,117,43381
5945,180,43386
5946,13,43393
5947,101,43397
5948,209,43408
5949,66,43409
5950,139,43410
5951,17,43417
5952,19,25993
5953,27,25995
5954,124,26012
5955,202,26015
5956,8,26026
5957,207,26029
5958,82,26034
5959,72,26048
5960,45,26051
5961,111,26059
5962,185,26078
5963,96,26088
5964,111,26090
5965,181,26094
5966,208,26111
5967,127,26112
5968,38,26117
5969,66,26119
5970,2,26123
5971,207,26133
5972,208,26136
5973,181,26146
5974,4,26151
5975,8,26167
5976,70,26171
5977,109,26179
5978,32,26187
5979,208,26192
5980,207,26194
5981,129,26195
5982,217,26198
5983,20,26199
5984,65,42817
5985,23,42866
5986,106,42871
5987,62,42876
5988,141,42877
5989,67,42880
5990,133,42908
5991,212,42917
5992,61,42923
5993,91,42930
5994,57,42931
5995,217,42933
5996,0,42957
5997,123,42983
5998,52,43013
5999,0,43044
6000,214,43047
6001,27,43058
6002,180,43104
6003,58,43110
6004,82,43114
6005,100,43118
6006,70,43122
6007,98,43141
6008,81,43146
6009,204,43174
6010,118,43192
6011,75,43226
6012,119,43239
6013,20,43274
6014,143,43296
6015,42,43315
6016,55,2507
6017,78,2567
6018,7,2574
6019,35,2576
6020,213,2589
6021,207,2644
6022,4,2670
6023,17,2674
6024,217,2746
6025,47,2805
6026,140,2819
6027,100,2845
6028,135,2856
6029,126,2857
6030,208,2913
6031,101,2920
6032,61,2949
6033,0,2974
6034,78,2985
6035,4,3004
6036,23,3022
6037,107,3027
6038,61,3028
6039,4,3038
6040,23,3083
6041,93,3088
6042,135,3113
6043,217,3305
6044,68,3324
6045,204,3388
6046,53,3535
6047,81,3701
6048,213,17079
6049,26,17084
6050,216,17110
6051,118,17115
6052,173,17116
6053,84,17120
6054,62,17140
6055,198,17141
6056,71,17163
6057,137,17201
6058,65,17245
6059,113,17259
6060,101,17270
6061,55,17272
6062,107,17290
6063,85,17310
6064,134,17327
6065,94,17331
6066,81,17333
6067,36,17337
6068,43,17348
6069,30,17354
6070,59,17365
6071,73,17378
6072,73,17381
6073,17,17488
6074,52,17534
6075,111,17570
6076,111,17625
6077,27,17627
6078,79,17637
6079,19,17645
6080,135,16740
6081,64,16750
6082,36,16753
6083,57,16771
6084,68,16776
6085,17,16797
6086,110,16819
6087,104,16861
6088,93,16871
6089,58,16884
6090,109,16933
6091,13,16944
6092,13,16952
6093,71,16986
6094,198,17009
6095,106,17017
6096,71,17030
6097,139,17037
6098,116,17055
6099,100,17077
6100,19,17114
6101,107,17124
6102,0,17134
6103,95,17154
6104,48,17218
6105,9,17257
6106,98,17265
6107,209,17295
6108,78,17308
6109,94,17343
6110,1,17404
6111,20,17431
6112,140,39305
6113,32,39307
6114,49,39308
6115,120,39325
6116,107,39326
6117,4,39341
6118,68,39344
6119,51,39349
6120,2,39350
6121,43,39353
6122,128,39358
6123,71,39364
6124,97,39368
6125,125,39370
6126,36,39374
6127,40,39379
6128,37,39381
6129,52,39383
6130,107,39385
6131,101,39395
6132,29,39396
6133,137,39405
6134,220,39408
6135,87,39417
6136,8,39421
6137,195,39424
6138,124,39426
6139,213,39428
6140,128,39431
6141,3,39433
6142,35,39435
6143,52,39442
6144,131,32159
6145,87,32167
6146,88,32181
6147,15,32188
6148,140,32201
6149,41,32203
6150,111,32206
6151,110,32216
6152,17,32217
6153,21,32219
6154,208,32223
6155,94,32226
6156,173,32228
6157,4,32235
6158,119,32238
6159,35,32239
6160,58,32244
6161,78,32246
6162,52,32249
6163,42,32250
6164,94,32254
6165,179,32260
6166,135,32263
6167,131,32267
6168,81,32268
6169,207,32269
6170,94,32272
6171,131,32273
6172,73,32276
6173,8,32280
6174,20,32287
6175,195,32290
6176,41,35600
6177,65,35620
6178,91,35648
6179,220,35652
6180,120,35655
6181,77,35659
6182,40,35665
6183,37,35666
6184,106,35672
6185,1,35676
6186,123,35721
6187,214,35723
6188,20,35726
6189,14,35727
6190,58,35735
6191,77,35787
6192,6,35795
6193,85,35803
6194,108,35815
6195,209,35820
6196,211,35828
6197,137,35846
6198,207,35849
6199,97,35852
6200,2,35865
6201,91,35875
6202,99,35933
6203,6,35935
6204,55,35940
6205,123,35941
6206,27,35943
6207,128,35965
6208,66,36357
6209,120,36363
6210,7,36364
6211,119,36365
6212,132,36366
6213,41,36369
6214,134,36371
6215,70,36373
6216,43,36375
6217,65,36377
6218,140,36380
6219,141,36389
6220,12,36391
6221,58,36396
6222,117,36400
6223,212,36402
6224,167,36413
6225,47,36418
6226,198,36432
6227,64,36433
6228,76,36438
6229,42,36446
6230,204,36447
6231,94,36450
6232,0,36460
6233,104,36464
6234,91,36469
6235,137,36484
6236,137,36504
6237,133,36510
6238,113,36514
6239,71,36515
6240,4,9605
6241,173,9613
6242,91,9641
6243,79,9671
6244,195,9674
6245,45,9676
6246,213,9682
6247,68,9683
6248,3,9684
6249,163,9685
6250,79,9697
6251,135,9708
6252,24,9719
6253,173,9722
6254,117,9726
6255,12,9727
6256,27,9733
6257,204,9734
6258,97,9735
6259,82,9741
6260,209,9747
6261,61,9748
6262,104,9749
6263,23,9750
6264,91,9751
6265,58,9758
6266,21,9762
6267,35,9779
6268,79,9793
6269,132,9795
6270,21,9805
6271,35,9938
6272,133,25624
6273,127,25626
6274,21,25632
6275,143,25637
6276,98,25656
6277,64,25679
6278,31,25686
6279,133,25687
6280,91,25688
6281,55,25689
6282,59,25691
6283,132,25714
6284,34,25752
6285,45,25754
6286,132,25772
6287,62,25781
6288,193,25785
6289,88,25788
6290,55,25797
6291,212,25819
6292,181,25847
6293,35,25871
6294,208,25872
6295,19,25902
6296,75,25926
6297,32,25935
6298,53,25988
6299,107,25990
6300,3,25999
6301,86,26017
6302,115,26020
6303,0,26024
6304,35,3587
6305,63,3657
6306,220,3682
6307,26,3692
6308,20,3703
6309,40,3735
6310,212,3737
6311,64,3746
6312,47,3747
6313,2,3750
6314,91,3795
6315,57,3855
6316,68,3857
6317,57,3883
6318,98,3913
6319,9,3919
6320,8,3929
6321,140,3944
6322,104,3961
6323,27,4015
6324,207,4034
6325,35,4035
6326,61,4037
6327,63,4091
6328,68,4137
6329,36,4147
6330,135,4178
6331,4,4191
6332,12,4223
6333,0,4237
6334,87,4241
6335,220,4308
6336,70,50629
6337,94,50630
6338,124,50632
6339,12,50635
6340,28,50636
6341,118,50637
6342,126,50638
6343,137,50639
6344,84,50640
6345,116,50641
6346,58,50645
6347,24,50648
6348,21,50652
6349,76,50654
6350,19,50658
6351,87,50660
6352,17,50665
6353,141,50667
6354,42,50670
6355,13,50672
6356,193,50673
6357,128,50674
6358,22,50677
6359,116,50679
6360,58,50680
6361,113,50681
6362,70,50682
6363,216,50686
6364,108,50687
6365,33,50690
6366,9,50691
6367,0,50693
6368,114,26503
6369,58,26507
6370,113,26513
6371,60,26515
6372,109,26519
6373,72,26521
6374,209,26528
6375,45,26531
6376,163,26533
6377,35,26538
6378,46,26546
6379,112,26557
6380,185,26579
6381,133,26588
6382,163,26597
6383,7,26611
6384,69,26616
6385,33,26630
6386,94,26660
6387,52,26676
6388,120,26725
6389,35,26728
6390,60,26731
6391,198,26733
6392,76,26743
6393,81,26750
6394,31,26754
6395,43,26762
6396,65,26771
6397,107,26773
6398,40,26777
6399,220,26787
6400,17,41614
6401,70,41621
6402,7,41622
6403,94,41623
6404,133,41625
6405,88,41662
6406,213,41671
6407,8,41683
6408,195,41688
6409,60,41695
6410,14,41700
6411,217,41701
6412,41,41704
6413,212,41713
6414,131,41721
6415,82,41722
6416,27,41723
6417,116,41746
6418,108,41754
6419,24,41756
6420,104,41760
6421,8,41763
6422,104,41765
6423,8,41767
6424,130,41768
6425,204,41773
6426,20,41777
6427,131,41785
6428,24,41789
6429,209,41795
6430,0,41796
6431,217,41799
6432,61,15129
6433,95,15547
6434,135,16121
6435,64,16259
6436,207,18348
6437,116,19402
6438,213,39
6439,139,96
6440,55,110
6441,217,151
6442,123,163
6443,94,164
6444,107,225
6445,123,274
6446,124,278
6447,78,290
6448,104,409
6449,12,424
6450,90,437
6451,129,448
6452,78,462
6453,35,568
6454,83,630
6455,57,697
6456,138,712
6457,20,723
6458,23,734
6459,109,765
6460,71,805
6461,123,842
6462,35,848
6463,136,902
6464,58,8749
6465,195,8756
6466,34,8778
6467,69,8788
6468,119,8790
6469,137,8795
6470,20,8802
6471,65,8819
6472,2,8844
6473,0,8845
6474,143,8851
6475,73,8873
6476,124,8888
6477,70,8891
6478,119,8893
6479,79,8898
6480,13,8904
6481,65,8910
6482,58,8924
6483,204,8927
6484,3,8940
6485,124,8942
6486,41,8950
6487,113,8954
6488,87,8955
6489,117,8961
6490,92,8962
6491,195,8978
6492,8,8987
6493,173,8999
6494,32,9019
6495,53,9023
6496,17,46540
6497,29,46545
6498,128,46546
6499,43,46547
6500,47,46549
6501,128,46550
6502,43,46553
6503,81,46555
6504,163,46562
6505,6,46563
6506,118,46564
6507,155,46567
6508,73,46571
6509,76,46572
6510,113,46575
6511,187,46577
6512,113,46578
6513,133,46581
6514,128,46582
6515,107,46583
6516,208,46584
6517,41,46585
6518,70,46591
6519,45,46593
6520,209,46597
6521,104,46603
6522,24,46604
6523,133,46605
6524,112,46608
6525,69,46612
6526,35,46622
6527,208,46624
6528,137,49349
6529,58,49353
6530,0,49354
6531,0,49355
6532,53,49356
6533,44,49358
6534,16,49359
6535,173,49363
6536,26,49366
6537,204,49373
6538,141,49377
6539,68,49379
6540,217,49381
6541,179,49382
6542,137,49384
6543,203,49386
6544,82,49396
6545,66,49402
6546,133,49407
6547,116,49409
6548,47,49414
6549,9,49420
6550,100,49432
6551,7,49438
6552,99,49445
6553,97,49449
6554,82,49451
6555,14,49455
6556,17,49457
6557,59,49459
6558,88,49460
6559,112,49461
6560,84,37165
6561,181,37243
6562,220,37310
6563,20,37348
6564,55,37413
6565,109,37626
6566,47,37641
6567,214,37833
6568,58,37896
6569,125,37993
6570,101,38075
6571,82,38452
6572,127,38887
6573,140,39179
6574,136,39347
6575,126,40487
6576,220,41289
6577,91,41298
6578,58,41367
6579,118,41382
6580,92,41505
6581,51,41580
6582,63,41643
6583,130,42065
6584,46,42088
6585,49,42149
6586,17,42430
6587,51,42458
6588,37,42645
6589,95,42713
6590,207,42985
6591,113,43822
6592,108,32734
6593,212,32744
6594,30,32771
6595,98,32774
6596,35,32776
6597,71,32849
6598,124,32860
6599,19,32867
6600,34,32928
6601,44,32934
6602,130,32939
6603,137,32959
6604,112,32964
6605,216,32974
6606,118,32977
6607,195,33036
6608,60,33064
6609,55,33068
6610,37,33073
6611,130,33079
6612,77,33165
6613,79,33169
6614,123,33185
6615,98,33209
6616,70,33211
6617,26,33214
6618,49,33228
6619,106,33239
6620,217,33266
6621,20,33273
6622,77,33314
6623,41,33319
6624,34,28396
6625,27,28400
6626,98,28401
6627,58,28406
6628,14,28408
6629,46,28410
6630,132,28412
6631,113,28421
6632,105,28423
6633,103,28426
6634,49,28429
6635,35,28433
6636,211,28436
6637,71,28440
6638,127,28447
6639,125,28451
6640,57,28452
6641,34,28453
6642,73,28457
6643,127,28459
6644,110,28461
6645,141,28466
6646,65,28470
6647,181,28476
6648,211,28479
6649,95,28484
6650,84,28493
6651,30,28495
6652,44,28497
6653,71,28500
6654,40,28503
6655,207,28506
6656,127,58796
6657,17,58802
6658,138,58804
6659,83,58808
6660,123,58810
6661,207,58812
6662,6,58815
6663,135,58819
6664,55,58820
6665,46,58824
6666,47,58826
6667,52,58835
6668,207,58836
6669,20,58837
6670,20,58839
6671,78,58840
6672,61,58842
6673,12,58846
6674,217,58847
6675,12,58848
6676,207,58854
6677,117,58856
6678,70,58864
6679,118,58872
6680,195,58878
6681,12,58879
6682,29,58882
6683,104,58884
6684,79,58887
6685,51,58891
6686,5,58892
6687,141,58894
6688,209,39153
6689,81,39160
6690,96,39168
6691,16,39171
6692,91,39172
6693,78,39180
6694,111,39192
6695,34,39205
6696,19,39207
6697,32,39208
6698,109,39210
6699,133,39213
6700,131,39214
6701,66,39222
6702,49,39231
6703,118,39240
6704,3,39246
6705,113,39248
6706,179,39255
6707,25,39256
6708,127,39264
6709,71,39266
6710,107,39270
6711,118,39275
6712,216,39278
6713,34,39281
6714,124,39282
6715,34,39283
6716,158,39284
6717,45,39285
6718,61,39291
6719,129,39294
6720,217,47646
6721,216,47648
6722,2,47659
6723,86,47665
6724,87,47676
6725,216,47688
6726,109,47705
6727,143,47713
6728,4,47726
6729,34,47732
6730,59,47746
6731,33,47747
6732,134,47749
6733,96,47753
6734,30,47755
6735,180,47763
6736,158,47783
6737,68,47785
6738,90,47790
6739,58,47804
6740,84,47808
6741,29,47813
6742,139,47818
6743,135,47821
6744,22,47829
6745,61,47834
6746,8,47852
6747,131,47853
6748,46,47854
6749,92,47865
6750,132,47873
6751,111,47875
6752,204,29628
6753,35,29639
6754,90,29644
6755,179,29665
6756,80,29671
6757,24,29676
6758,59,29680
6759,94,29688
6760,217,29715
6761,72,29716
6762,84,29717
6763,130,29725
6764,3,29729
6765,195,29731
6766,62,29734
6767,87,29756
6768,20,29758
6769,4,29760
6770,23,29761
6771,97,29779
6772,40,29780
6773,16,29796
6774,2,29873
6775,98,29926
6776,1,29932
6777,123,29955
6778,109,29975
6779,80,29976
6780,19,29977
6781,181,29983
6782,220,29987
6783,128,30033
6784,78,54454
6785,35,54461
6786,179,54469
6787,123,54470
6788,120,54472
6789,193,54473
6790,19,54474
6791,47,54476
6792,91,54480
6793,14,54481
6794,124,54488
6795,158,54493
6796,128,54496
6797,40,54497
6798,58,54500
6799,68,54501
6800,78,54504
6801,58,54509
6802,116,54510
6803,76,54515
6804,91,54516
6805,202,54520
6806,78,54523
6807,119,54531
6808,195,54533
6809,124,54537
6810,81,54541
6811,49,54543
6812,0,54546
6813,96,54547
6814,3,54548
6815,116,54549
6816,99,27473
6817,106,27499
6818,181,27502
6819,110,27503
6820,119,27507
6821,100,27513
6822,181,27517
6823,72,27522
6824,73,27524
6825,110,27527
6826,216,27528
6827,97,27534
6828,216,27537
6829,108,27541
6830,44,27558
6831,209,27563
6832,139,27564
6833,107,27566
6834,1,27576
6835,51,27577
6836,87,27588
6837,87,27589
6838,87,27590
6839,132,27592
6840,140,27600
6841,59,27607
6842,78,27616
6843,106,27623
6844,220,27625
6845,83,27636
6846,83,27643
6847,84,27650
6848,209,57286
6849,193,57288
6850,134,57289
6851,44,57290
6852,195,57293
6853,33,57294
6854,0,57295
6855,78,57301
6856,108,57302
6857,21,57304
6858,212,57305
6859,108,57307
6860,41,57308
6861,33,57310
6862,181,57312
6863,97,57313
6864,45,57314
6865,134,57315
6866,127,57319
6867,70,57321
6868,45,57323
6869,65,57324
6870,49,57326
6871,139,57327
6872,135,57330
6873,133,57331
6874,185,57333
6875,15,57334
6876,173,57337
6877,70,57340
6878,45,57342
6879,4,57343
6880,193,46629
6881,82,46630
6882,19,46631
6883,134,46633
6884,123,46638
6885,130,46639
6886,99,46641
6887,62,46647
6888,76,46652
6889,26,46656
6890,141,46662
6891,30,46668
6892,64,46673
6893,78,46677
6894,128,46679
6895,163,46682
6896,9,46685
6897,63,46694
6898,51,46699
6899,132,46701
6900,4,46702
6901,9,46704
6902,62,46706
6903,121,46707
6904,90,46711
6905,107,46715
6906,86,46717
6907,193,46721
6908,61,46723
6909,198,46725
6910,4,46726
6911,72,46728
6912,69,42627
6913,19,42637
6914,73,42643
6915,91,42654
6916,72,42659
6917,133,42663
6918,3,42667
6919,42,42672
6920,13,42673
6921,127,42676
6922,97,42678
6923,28,42680
6924,53,42688
6925,193,42696
6926,45,42698
6927,13,42703
6928,31,42711
6929,207,42714
6930,204,42723
6931,58,42730
6932,185,42731
6933,138,42733
6934,73,42739
6935,55,42745
6936,217,42751
6937,179,42759
6938,72,42762
6939,33,42768
6940,213,42772
6941,1,42773
6942,77,42775
6943,62,42776
6944,11,10751
6945,59,10760
6946,73,10887
6947,27,10901
6948,216,10943
6949,57,10947
6950,9,10949
6951,66,10957
6952,62,10960
6953,62,10966
6954,49,10992
6955,207,11025
6956,126,11026
6957,81,11036
6958,214,11043
6959,8,11047
6960,19,11054
6961,208,11057
6962,9,11090
6963,139,11091
6964,110,11118
6965,127,11121
6966,27,11134
6967,23,11149
6968,106,11154
6969,87,11183
6970,110,11204
6971,185,11220
6972,139,11235
6973,32,11240
6974,20,11241
6975,77,11261
6976,23,22297
6977,36,22308
6978,47,22315
6979,82,22317
6980,14,22325
6981,63,22336
6982,56,22346
6983,47,22352
6984,4,22355
6985,129,22364
6986,0,22369
6987,193,22374
6988,45,22378
6989,220,22380
6990,78,22387
6991,125,22391
6992,204,22396
6993,98,22455
6994,9,22483
6995,11,22484
6996,65,22493
6997,212,22503
6998,20,22513
6999,95,22523
7000,140,22533
7001,143,22541
7002,109,22549
7003,88,22561
7004,58,22569
7005,55,22578
7006,207,22581
7007,220,22600
7008,67,4414
7009,135,4452
7010,24,4538
7011,79,4562
7012,98,4584
7013,58,4650
7014,20,4741
7015,87,4806
7016,6,4830
7017,212,4833
7018,179,4918
7019,71,5128
7020,141,5315
7021,87,5316
7022,87,5396
7023,81,5445
7024,14,5459
7025,60,5601
7026,35,6207
7027,101,6458
7028,73,6936
7029,0,6984
7030,220,9823
7031,204,10063
7032,137,11151
7033,128,12504
7034,123,12514
7035,77,13281
7036,126,13908
7037,16,14084
7038,107,14335
7039,62,14738
7040,108,21989
7041,70,21990
7042,202,21991
7043,20,22000
7044,94,22011
7045,12,22026
7046,220,22031
7047,20,22032
7048,103,22059
7049,7,22060
7050,217,22066
7051,193,22067
7052,106,22087
7053,211,22092
7054,34,22122
7055,198,22132
7056,35,22134
7057,64,22139
7058,78,22163
7059,40,22177
7060,46,22184
7061,46,22197
7062,35,22207
7063,35,22209
7064,140,22224
7065,70,22235
7066,65,22248
7067,116,22249
7068,121,22253
7069,35,22255
7070,37,22262
7071,70,22265
7072,0,3707
7073,51,3736
7074,98,3810
7075,104,3830
7076,61,3836
7077,65,3848
7078,117,3863
7079,75,3880
7080,35,3985
7081,129,4018
7082,141,4052
7083,167,4078
7084,155,4087
7085,78,4101
7086,87,4155
7087,33,4161
7088,60,4165
7089,65,4188
7090,100,4193
7091,216,4199
7092,135,4225
7093,100,4277
7094,12,4306
7095,208,4326
7096,124,4330
7097,129,4335
7098,34,4348
7099,68,4413
7100,101,4429
7101,4,4455
7102,9,4476
7103,104,4515
7104,54,15744
7105,111,15767
7106,35,15768
7107,73,15773
7108,68,15792
7109,97,15796
7110,109,15803
7111,82,15804
7112,77,15813
7113,143,15847
7114,13,15848
7115,106,15851
7116,45,15867
7117,115,15893
7118,128,15897
7119,44,15899
7120,216,15929
7121,124,15967
7122,111,15968
7123,139,15980
7124,38,15984
7125,114,16000
7126,108,16003
7127,12,16006
7128,71,16010
7129,35,16018
7130,180,16043
7131,120,16066
7132,76,16076
7133,193,16084
7134,40,16113
7135,62,16120
7136,35,54456
7137,217,54457
7138,70,54460
7139,72,54466
7140,58,54468
7141,139,54471
7142,71,54479
7143,47,54482
7144,72,54486
7145,204,54489
7146,41,54495
7147,139,54503
7148,50,54506
7149,24,54512
7150,138,54513
7151,62,54514
7152,43,54521
7153,185,54532
7154,129,54538
7155,70,54539
7156,13,54551
7157,69,54575
7158,207,54580
7159,104,54585
7160,213,54591
7161,58,54596
7162,7,54600
7163,135,54606
7164,61,54634
7165,70,54646
7166,118,54651
7167,179,54688
7168,81,50243
7169,88,50244
7170,64,50248
7171,106,50252
7172,109,50253
7173,217,50254
7174,12,50256
7175,76,50258
7176,115,50260
7177,130,50261
7178,2,50262
7179,63,50264
7180,99,50265
7181,138,50266
7182,13,50268
7183,167,50271
7184,20,50272
7185,56,50273
7186,20,50275
7187,70,50277
7188,37,50281
7189,121,50282
7190,98,50286
7191,34,50287
7192,79,50288
7193,173,50289
7194,34,50293
7195,92,50296
7196,70,50297
7197,209,50302
7198,106,50305
7199,167,50310
7200,213,24148
7201,81,24149
7202,52,24163
7203,193,24164
7204,1,24173
7205,45,24183
7206,135,24194
7207,207,24195
7208,155,24197
7209,0,24203
7210,117,24207
7211,24,24215
7212,128,24222
7213,141,24227
7214,40,24232
7215,35,24235
7216,134,24240
7217,56,24245
7218,54,24259
7219,107,24264
7220,131,24268
7221,217,24269
7222,79,24281
7223,12,24285
7224,211,24292
7225,141,24297
7226,134,24300
7227,98,24301
7228,70,24303
7229,57,24305
7230,212,24309
7231,21,24314
7232,78,54926
7233,12,54927
7234,173,54928
7235,9,54931
7236,71,54933
7237,32,54934
7238,84,54935
7239,68,54937
7240,129,54939
7241,195,54950
7242,167,54954
7243,71,54955
7244,53,54956
7245,127,54957
7246,41,54958
7247,81,54961
7248,204,54963
7249,193,54967
7250,104,54968
7251,179,54973
7252,72,54974
7253,71,54978
7254,43,54981
7255,12,54985
7256,214,54986
7257,118,54987
7258,127,54989
7259,94,54995
7260,41,54997
7261,107,54998
7262,79,55001
7263,16,55002
7264,131,35549
7265,220,35557
7266,78,35558
7267,52,35563
7268,107,35588
7269,29,35592
7270,204,35598
7271,127,35611
7272,131,35624
7273,173,35625
7274,71,35636
7275,78,35658
7276,26,35660
7277,0,35663
7278,55,35668
7279,65,35675
7280,84,35679
7281,60,35680
7282,37,35685
7283,70,35690
7284,47,35692
7285,123,35693
7286,78,35696
7287,19,35724
7288,213,35746
7289,47,35748
7290,202,35749
7291,3,35751
7292,78,35752
7293,134,35755
7294,158,35756
7295,99,35762
7296,120,4246
7297,4,4252
7298,76,4288
7299,99,4302
7300,52,4317
7301,52,4322
7302,21,4346
7303,118,4366
7304,70,4394
7305,217,4408
7306,38,4418
7307,113,4433
7308,109,4444
7309,98,4481
7310,137,4496
7311,185,4531
7312,81,4574
7313,72,4580
7314,14,4586
7315,108,4628
7316,65,4633
7317,51,4639
7318,92,4648
7319,198,4661
7320,116,4662
7321,118,4699
7322,58,4701
7323,59,4702
7324,55,4707
7325,21,4710
7326,21,4729
7327,217,4782
7328,90,52553
7329,21,52558
7330,118,52561
7331,19,52565
7332,101,52566
7333,51,52572
7334,63,52573
7335,6,52574
7336,100,52576
7337,179,52583
7338,65,52585
7339,73,52586
7340,28,52589
7341,94,52602
7342,42,52605
7343,118,52606
7344,96,52612
7345,94,52618
7346,54,52622
7347,63,52624
7348,137,52632
7349,28,52634
7350,120,52638
7351,136,52643
7352,103,52645
7353,135,52650
7354,116,52652
7355,198,52657
7356,216,52660
7357,20,52662
7358,100,52663
7359,80,52665
7360,21,3741
7361,209,3757
7362,42,3767
7363,141,3768
7364,204,3878
7365,20,3892
7366,44,3939
7367,216,3941
7368,38,4016
7369,70,4023
7370,3,4026
7371,0,4051
7372,12,4063
7373,41,4079
7374,12,4149
7375,24,4255
7376,87,4270
7377,48,4332
7378,63,4337
7379,92,4373
7380,212,4378
7381,76,4486
7382,34,4499
7383,108,4512
7384,27,4516
7385,123,4542
7386,55,4561
7387,99,4585
7388,80,4601
7389,1,4604
7390,204,4621
7391,61,4637
7392,50,50457
7393,97,50458
7394,2,50461
7395,12,50463
7396,81,50469
7397,51,50471
7398,195,50474
7399,19,50478
7400,41,50481
7401,213,50483
7402,179,50493
7403,23,50498
7404,19,50500
7405,4,50501
7406,136,50502
7407,13,50505
7408,209,50507
7409,35,50509
7410,86,50512
7411,66,50513
7412,13,50515
7413,58,50521
7414,87,50523
7415,119,50524
7416,131,50525
7417,11,50527
7418,81,50529
7419,11,50530
7420,131,50541
7421,6,50543
7422,133,50547
7423,198,50548
7424,65,59302
7425,195,59303
7426,17,59305
7427,131,59307
7428,4,59310
7429,65,59314
7430,127,59315
7431,63,59316
7432,58,59318
7433,90,59322
7434,87,59323
7435,24,59324
7436,19,59325
7437,16,59326
7438,143,59327
7439,81,59328
7440,81,59329
7441,73,59330
7442,0,59331
7443,19,59335
7444,34,59336
7445,77,59337
7446,28,59338
7447,99,59339
7448,44,59340
7449,133,59342
7450,8,59343
7451,212,59344
7452,78,59345
7453,220,59346
7454,91,59347
7455,130,59348
7456,91,41501
7457,81,41502
7458,213,41518
7459,1,41525
7460,173,41529
7461,49,41531
7462,0,41532
7463,106,41534
7464,31,41542
7465,34,41548
7466,58,41569
7467,87,41570
7468,84,41571
7469,113,41578
7470,19,41581
7471,108,41583
7472,81,41587
7473,75,41590
7474,73,41595
7475,77,41599
7476,26,41603
7477,193,41606
7478,71,41615
7479,23,41617
7480,47,41619
7481,61,41624
7482,212,41628
7483,120,41636
7484,213,41640
7485,53,41644
7486,58,41645
7487,62,41649
7488,46,44727
7489,27,44729
7490,108,44730
7491,211,44731
7492,43,44739
7493,209,44742
7494,44,44745
7495,179,44746
7496,143,44749
7497,12,44752
7498,99,44757
7499,119,44767
7500,104,44770
7501,198,44777
7502,136,44778
7503,97,44779
7504,109,44784
7505,55,44788
7506,87,44791
7507,79,44796
7508,68,44799
7509,193,44803
7510,120,44811
7511,213,44813
7512,124,44816
7513,38,44819
7514,127,44821
7515,99,44824
7516,185,44828
7517,12,44829
7518,42,44830
7519,101,44833
7520,92,12093
7521,130,12109
7522,98,12115
7523,76,12127
7524,45,12169
7525,82,12177
7526,54,12213
7527,96,12241
7528,173,12245
7529,198,12254
7530,92,12255
7531,214,12269
7532,41,12279
7533,86,12281
7534,193,12288
7535,52,12293
7536,131,12302
7537,107,12333
7538,59,12369
7539,65,12388
7540,70,12392
7541,84,12431
7542,130,12443
7543,118,12476
7544,78,12515
7545,34,12521
7546,204,12523
7547,52,12606
7548,47,12609
7549,135,12615
7550,198,12620
7551,64,12632
7552,139,14098
7553,204,14100
7554,3,14107
7555,217,14111
7556,179,14119
7557,14,14126
7558,55,14131
7559,52,14141
7560,98,14142
7561,193,14153
7562,82,14167
7563,73,14175
7564,208,14180
7565,106,14183
7566,128,14200
7567,114,14201
7568,73,14249
7569,4,14257
7570,208,14262
7571,84,14274
7572,118,14275
7573,78,14276
7574,77,14280
7575,82,14294
7576,123,14307
7577,193,14309
7578,119,14313
7579,16,14319
7580,217,14321
7581,113,14337
7582,71,14341
7583,76,14343
7584,34,5959
7585,97,6011
7586,131,6040
7587,70,6122
7588,209,6160
7589,137,6176
7590,81,6209
7591,134,6219
7592,109,6233
7593,87,6240
7594,31,6266
7595,138,6267
7596,216,6293
7597,73,6311
7598,119,6349
7599,43,6367
7600,100,6380
7601,49,6387
7602,75,6478
7603,20,6523
7604,114,6535
7605,95,6592
7606,94,6595
7607,138,6611
7608,58,6657
7609,82,6732
7610,113,6735
7611,14,6755
7612,69,6801
7613,123,6829
7614,0,6848
7615,124,6865
7616,52,37458
7617,101,37472
7618,88,37475
7619,60,37483
7620,119,37494
7621,44,37499
7622,138,37509
7623,76,37517
7624,106,37532
7625,83,37536
7626,82,37554
7627,185,37558
7628,35,37565
7629,47,37579
7630,91,37588
7631,70,37590
7632,98,37591
7633,135,37597
7634,34,37611
7635,84,37617
7636,94,37621
7637,217,37628
7638,87,37633
7639,114,37645
7640,98,37648
7641,117,37655
7642,11,37666
7643,110,37669
7644,57,37670
7645,58,37679
7646,4,37690
7647,33,37697
7648,209,33989
7649,12,34049
7650,97,34085
7651,91,34182
7652,53,34183
7653,85,34196
7654,179,34228
7655,73,34235
7656,88,34250
7657,75,34254
7658,78,34306
7659,21,34310
7660,13,34352
7661,19,34368
7662,67,34391
7663,99,34399
7664,47,34557
7665,109,34727
7666,62,34789
7667,58,34826
7668,195,34843
7669,72,34881
7670,125,34947
7671,131,34965
7672,185,34983
7673,100,35044
7674,195,35046
7675,73,35072
7676,35,35100
7677,106,35184
7678,118,35201
7679,57,35217
7680,110,19630
7681,28,19632
7682,64,19662
7683,208,19679
7684,28,19738
7685,91,19743
7686,124,19745
7687,111,19769
7688,213,19773
7689,106,19774
7690,61,19823
7691,213,19940
7692,58,19950
7693,48,19969
7694,111,19993
7695,128,20015
7696,207,20017
7697,193,20021
7698,179,20023
7699,135,20052
7700,111,20057
7701,65,20065
7702,12,20079
7703,34,20086
7704,88,20118
7705,76,20158
7706,13,20160
7707,137,20164
7708,207,20171
7709,180,20174
7710,17,20190
7711,134,20215
7712,138,55444
7713,37,55446
7714,19,55451
7715,9,55453
7716,179,55454
7717,27,55455
7718,91,55458
7719,118,55459
7720,116,55461
7721,135,55463
7722,217,55470
7723,208,55472
7724,135,55475
7725,124,55478
7726,107,55479
7727,193,55481
7728,107,55483
7729,208,55484
7730,38,55488
7731,44,55491
7732,213,55493
7733,125,55496
7734,4,55502
7735,42,55503
7736,198,55507
7737,202,55517
7738,75,55519
7739,12,55520
7740,54,55522
7741,21,55526
7742,212,55528
7743,208,55529
7744,135,42976
7745,141,42981
7746,89,42989
7747,53,42991
7748,116,42992
7749,220,42997
7750,57,43002
7751,100,43009
7752,116,43026
7753,81,43027
7754,45,43031
7755,82,43032
7756,125,43033
7757,82,43036
7758,43,43049
7759,120,43053
7760,16,43057
7761,58,43060
7762,193,43061
7763,40,43064
7764,121,43065
7765,173,43072
7766,133,43080
7767,209,43084
7768,99,43086
7769,131,43096
7770,35,43099
7771,51,43102
7772,99,43113
7773,62,43139
7774,73,43140
7775,41,43143
7776,20,10088
7777,204,10118
7778,44,10131
7779,143,10143
7780,204,10144
7781,8,10162
7782,216,10177
7783,52,10184
7784,81,10206
7785,173,10214
7786,76,10234
7787,12,10248
7788,7,10251
7789,106,10278
7790,180,10298
7791,76,10307
7792,97,10318
7793,12,10325
7794,86,10376
7795,26,10380
7796,55,10411
7797,86,10457
7798,19,10476
7799,30,10509
7800,120,10542
7801,73,10573
7802,64,10574
7803,193,10603
7804,113,10606
7805,79,10627
7806,138,10660
7807,59,10701
7808,83,1365
7809,204,1383
7810,35,1420
7811,34,1466
7812,33,1472
7813,83,1514
7814,83,1518
7815,180,1535
7816,110,1548
7817,35,1565
7818,49,1589
7819,138,1593
7820,3,1616
7821,31,1639
7822,46,1643
7823,99,1678
7824,63,1699
7825,72,1737
7826,41,1738
7827,3,1745
7828,97,1789
7829,16,1856
7830,99,1869
7831,95,1892
7832,120,1931
7833,137,2006
7834,92,2015
7835,127,2046
7836,130,2060
7837,12,2064
7838,17,2080
7839,84,2099
7840,39,266
7841,35,270
7842,100,282
7843,38,285
7844,180,298
7845,214,312
7846,139,397
7847,115,405
7848,12,414
7849,71,443
7850,35,473
7851,4,490
7852,220,503
7853,120,515
7854,98,516
7855,60,527
7856,86,543
7857,137,581
7858,140,602
7859,14,605
7860,204,683
7861,125,684
7862,26,728
7863,127,764
7864,6,768
7865,34,773
7866,0,784
7867,3,824
7868,7,840
7869,61,856
7870,46,859
7871,126,864
7872,71,17679
7873,8,17694
7874,82,17698
7875,128,17716
7876,99,17764
7877,13,17766
7878,55,17770
7879,81,17779
7880,78,17786
7881,132,17789
7882,125,17794
7883,204,17803
7884,110,17808
7885,207,17816
7886,109,17826
7887,30,17841
7888,75,17843
7889,70,17857
7890,217,17866
7891,85,17883
7892,17,17889
7893,99,17891
7894,208,17893
7895,17,17960
7896,92,17994
7897,118,17999
7898,37,18002
7899,98,18005
7900,208,18051
7901,27,18059
7902,109,18077
7903,72,18130
7904,179,4711
7905,19,4712
7906,123,4719
7907,34,4732
7908,100,4749
7909,6,4753
7910,53,4761
7911,163,4775
7912,217,4784
7913,88,4785
7914,96,4786
7915,35,4787
7916,68,4797
7917,40,4801
7918,137,4804
7919,119,4810
7920,94,4853
7921,181,4913
7922,13,4919
7923,45,4930
7924,65,4944
7925,0,4951
7926,207,4979
7927,87,4995
7928,84,5002
7929,124,5055
7930,26,5071
7931,12,5076
7932,34,5077
7933,95,5082
7934,101,5087
7935,61,5093
7936,129,54669
7937,72,54704
7938,70,54743
7939,108,54768
7940,127,54782
7941,23,54790
7942,55,54801
7943,59,54804
7944,12,54830
7945,139,54837
7946,25,54844
7947,92,54845
7948,33,54932
7949,208,54936
7950,58,54945
7951,19,54977
7952,120,54993
7953,217,55005
7954,87,55104
7955,86,55105
7956,135,55106
7957,125,55112
7958,107,55124
7959,92,55126
7960,17,55153
7961,52,55165
7962,77,55192
7963,40,55198
7964,193,55212
7965,137,55226
7966,66,55232
7967,124,55246
7968,121,29308
7969,185,29313
7970,110,29321
7971,127,29330
7972,3,29331
7973,87,29332
7974,109,29353
7975,204,29356
7976,64,29358
7977,17,29378
7978,63,29392
7979,137,29395
7980,3,29410
7981,125,29411
7982,193,29412
7983,98,29415
7984,97,29416
7985,113,29419
7986,158,29421
7987,96,29422
7988,78,29425
7989,44,29440
7990,126,29444
7991,9,29448
7992,120,29452
7993,63,29457
7994,87,29463
7995,173,29466
7996,76,29471
7997,198,29477
7998,32,29479
7999,217,29489
8000,131,49553
8001,124,49561
8002,97,49562
8003,117,49563
8004,63,49566
8005,220,49568
8006,92,49571
8007,11,49583
8008,61,49592
8009,204,49593
8010,217,49599
8011,19,49603
8012,207,49604
8013,6,49609
8014,97,49612
8015,60,49617
8016,26,49619
8017,56,49623
8018,131,49631
8019,20,49633
8020,179,49635
8021,83,49637
8022,41,49644
8023,21,49645
8024,73,49646
8025,70,49651
8026,34,49654
8027,60,49656
8028,127,49657
8029,34,49660
8030,92,49665
8031,109,49666
8032,106,19965
8033,62,19968
8034,10,19978
8035,123,19983
8036,28,19989
8037,127,19990
8038,79,19999
8039,124,20018
8040,9,20024
8041,128,20036
8042,17,20043
8043,72,20056
8044,49,20067
8045,63,20103
8046,45,20110
8047,65,20152
8048,69,20175
8049,80,20195
8050,115,20225
8051,211,20253
8052,40,20257
8053,108,20279
8054,220,20284
8055,216,20291
8056,13,20294
8057,13,20307
8058,71,20330
8059,217,20354
8060,32,20378
8061,32,20383
8062,208,20389
8063,62,20395
8064,3,28961
8065,208,28966
8066,120,29008
8067,63,29011
8068,94,29014
8069,26,29035
8070,73,29053
8071,43,29065
8072,22,29066
8073,87,29072
8074,108,29083
8075,58,29092
8076,90,29101
8077,103,29109
8078,131,29123
8079,163,29132
8080,106,29136
8081,57,29165
8082,66,29178
8083,214,29182
8084,52,29190
8085,35,29226
8086,73,29238
8087,96,29251
8088,24,29266
8089,139,29268
8090,65,29292
8091,3,29311
8092,60,29335
8093,204,29355
8094,9,29357
8095,61,29403
8096,123,30974
8097,123,30996
8098,54,31087
8099,32,31347
8100,34,31813
8101,173,31949
8102,4,31974
8103,78,32063
8104,113,32277
8105,36,32298
8106,4,32310
8107,47,32314
8108,70,32434
8109,34,32483
8110,46,32500
8111,98,32516
8112,114,32563
8113,47,32624
8114,67,32670
8115,99,32716
8116,131,32754
8117,20,32755
8118,87,32790
8119,0,32800
8120,137,32810
8121,70,32835
8122,53,32836
8123,60,32847
8124,44,32869
8125,35,32874
8126,17,32889
8127,173,32933
8128,21,47115
8129,137,47119
8130,129,47120
8131,35,47122
8132,34,47124
8133,138,47125
8134,51,47126
8135,62,47128
8136,98,47130
8137,8,47132
8138,193,47133
8139,41,47138
8140,56,47141
8141,216,47143
8142,17,47146
8143,181,47152
8144,207,47155
8145,208,47157
8146,83,47160
8147,87,47162
8148,76,47164
8149,141,47167
8150,71,47169
8151,193,47173
8152,12,47174
8153,47,47179
8154,47,47180
8155,30,47182
8156,128,47183
8157,23,47186
8158,133,47187
8159,27,47191
8160,119,37487
8161,41,37519
8162,181,37522
8163,115,37533
8164,46,37537
8165,92,37546
8166,111,37559
8167,138,37592
8168,96,37613
8169,207,37615
8170,129,37637
8171,128,37640
8172,87,37644
8173,12,37652
8174,15,37703
8175,134,37722
8176,134,37728
8177,55,37733
8178,103,37746
8179,138,37818
8180,97,37832
8181,35,37841
8182,73,37879
8183,108,37882
8184,127,37911
8185,82,37961
8186,125,37973
8187,5,38019
8188,42,38030
8189,68,38034
8190,193,38045
8191,173,38054
8192,104,2571
8193,76,2580
8194,216,2623
8195,116,2626
8196,12,2628
8197,101,2640
8198,58,2668
8199,214,2672
8200,220,2679
8201,204,2696
8202,38,2697
8203,138,2704
8204,44,2727
8205,13,2764
8206,53,2801
8207,77,2823
8208,0,2858
8209,34,2875
8210,36,2880
8211,134,2885
8212,49,2918
8213,52,2937
8214,207,2941
8215,84,2945
8216,60,2968
8217,15,3003
8218,44,3013
8219,107,3020
8220,68,3025
8221,24,3050
8222,220,3063
8223,72,3067
8224,24,29856
8225,70,29861
8226,193,29862
8227,73,29863
8228,0,29864
8229,76,29876
8230,107,29879
8231,34,29891
8232,120,29892
8233,55,29893
8234,141,29904
8235,3,29912
8236,90,29929
8237,139,29930
8238,91,29944
8239,32,29973
8240,119,29978
8241,163,29979
8242,127,29984
8243,107,29993
8244,28,30019
8245,2,30028
8246,28,30035
8247,60,30040
8248,81,30041
8249,83,30042
8250,117,30047
8251,75,30065
8252,158,30075
8253,136,30082
8254,139,30090
8255,7,30096
8256,58,33074
8257,50,33078
8258,185,33082
8259,58,33100
8260,70,33106
8261,198,33116
8262,26,33128
8263,213,33133
8264,8,33135
8265,35,33138
8266,62,33146
8267,84,33148
8268,27,33150
8269,61,33152
8270,94,33157
8271,207,33164
8272,13,33179
8273,198,33188
8274,13,33190
8275,47,33197
8276,43,33199
8277,4,33206
8278,9,33212
8279,204,33226
8280,109,33236
8281,27,33255
8282,220,33276
8283,30,33279
8284,217,33291
8285,76,33294
8286,120,33295
8287,109,33297
8288,70,14438
8289,24,14456
8290,64,14498
8291,49,14502
8292,117,14538
8293,121,14542
8294,109,14555
8295,26,14612
8296,58,14645
8297,94,14666
8298,3,14692
8299,181,14707
8300,52,14756
8301,78,14769
8302,53,14772
8303,106,14794
8304,213,14803
8305,47,14880
8306,78,14886
8307,10,14928
8308,94,14929
8309,217,14939
8310,204,14953
8311,207,14959
8312,124,14968
8313,173,14990
8314,97,14999
8315,109,15004
8316,45,15055
8317,104,15059
8318,198,15116
8319,103,15140
8320,216,37075
8321,137,37085
8322,6,37086
8323,167,37089
8324,24,37094
8325,62,37095
8326,123,37098
8327,10,37108
8328,138,37135
8329,20,37153
8330,87,37195
8331,220,37206
8332,76,37212
8333,40,37246
8334,71,37248
8335,97,37261
8336,67,37264
8337,114,37267
8338,76,37274
8339,26,37276
8340,86,37278
8341,207,37294
8342,126,37302
8343,163,37349
8344,60,37351
8345,217,37355
8346,70,37365
8347,216,37383
8348,13,37394
8349,42,37427
8350,143,37441
8351,20,37467
8352,92,58623
8353,118,58624
8354,134,58625
8355,73,58627
8356,95,58628
8357,19,58631
8358,163,58632
8359,20,58634
8360,136,58635
8361,4,58637
8362,198,58639
8363,72,58641
8364,116,58642
8365,69,58644
8366,111,58645
8367,62,58647
8368,29,58648
8369,139,58649
8370,138,58651
8371,116,58652
8372,100,58653
8373,21,58657
8374,114,58658
8375,129,58662
8376,216,58664
8377,137,58666
8378,13,58667
8379,124,58668
8380,180,58669
8381,34,58671
8382,113,58672
8383,70,58673
8384,214,9485
8385,128,9496
8386,49,9504
8387,61,9507
8388,173,9510
8389,51,9523
8390,98,9535
8391,65,9536
8392,134,9545
8393,78,9547
8394,0,9567
8395,94,9568
8396,140,9582
8397,81,9584
8398,3,9599
8399,128,9601
8400,135,9612
8401,94,9618
8402,17,9622
8403,104,9627
8404,35,9629
8405,49,9630
8406,34,9633
8407,35,9634
8408,87,9639
8409,16,9648
8410,193,9652
8411,173,9654
8412,58,9664
8413,7,9681
8414,163,9690
8415,34,9700
8416,19,51954
8417,108,51958
8418,66,51959
8419,106,51960
8420,131,51966
8421,111,51974
8422,12,51978
8423,49,51979
8424,134,51986
8425,117,51987
8426,65,51990
8427,43,51996
8428,91,52004
8429,33,52005
8430,55,52007
8431,217,52011
8432,23,52014
8433,111,52016
8434,44,52019
8435,216,52020
8436,185,52021
8437,180,52023
8438,32,52025
8439,71,52029
8440,195,52032
8441,129,52034
8442,193,52038
8443,128,52041
8444,75,52043
8445,33,52045
8446,212,52046
8447,138,52049
8448,43,18632
8449,55,18644
8450,220,18677
8451,94,18680
8452,124,18682
8453,7,18690
8454,49,18716
8455,11,18721
8456,20,18798
8457,72,18893
8458,12,18916
8459,127,18924
8460,65,18929
8461,195,18939
8462,204,18941
8463,138,18979
8464,198,18982
8465,77,19004
8466,30,19015
8467,216,19020
8468,84,19035
8469,82,19063
8470,180,19064
8471,7,19072
8472,127,19089
8473,121,19099
8474,120,19103
8475,137,19114
8476,132,19133
8477,125,19169
8478,124,19195
8479,128,19227
8480,107,6454
8481,131,6462
8482,120,6464
8483,60,6472
8484,135,6482
8485,13,6483
8486,24,6484
8487,8,6496
8488,81,6515
8489,87,6525
8490,20,6541
8491,60,6593
8492,0,6629
8493,113,6633
8494,40,6640
8495,8,6690
8496,77,6763
8497,35,6766
8498,4,6771
8499,140,6775
8500,214,6776
8501,35,6787
8502,120,6799
8503,86,6812
8504,19,6817
8505,0,6821
8506,173,6877
8507,0,7058
8508,211,7074
8509,62,7080
8510,99,7083
8511,204,7108
8512,8,52730
8513,12,52733
8514,57,52735
8515,115,52737
8516,207,52738
8517,17,52740
8518,198,52742
8519,76,52743
8520,69,52746
8521,0,52749
8522,220,52751
8523,198,52752
8524,185,52754
8525,214,52756
8526,52,52757
8527,217,52758
8528,187,52760
8529,131,52764
8530,104,52768
8531,198,52776
8532,70,52784
8533,16,52786
8534,4,52787
8535,92,52788
8536,88,52790
8537,158,52791
8538,45,52793
8539,22,52794
8540,92,52795
8541,57,52798
8542,81,52801
8543,88,52802
8544,65,36339
8545,111,36350
8546,106,36355
8547,127,36410
