,partition,vertex
0,173,37516
1,99,37523
2,19,37527
3,117,37531
4,61,37538
5,108,37541
6,20,37545
7,64,37549
8,35,37561
9,9,37568
10,4,37576
11,13,37578
12,118,37581
13,104,37593
14,98,37595
15,76,37600
16,127,37601
17,211,37622
18,86,37634
19,96,37639
20,98,37642
21,30,37659
22,158,37662
23,20,37663
24,24,37665
25,101,37672
26,179,37684
27,98,37686
28,51,37692
29,84,37698
30,120,37700
31,79,37713
32,69,42627
33,19,42637
34,73,42643
35,91,42654
36,72,42659
37,133,42663
38,3,42667
39,42,42672
40,13,42673
41,127,42676
42,97,42678
43,28,42680
44,53,42688
45,193,42696
46,45,42698
47,13,42703
48,31,42711
49,207,42714
50,204,42723
51,58,42730
52,185,42731
53,138,42733
54,73,42739
55,55,42745
56,217,42751
57,179,42759
58,72,42762
59,33,42768
60,213,42772
61,1,42773
62,77,42775
63,62,42776
64,49,1145
65,2,1161
66,100,1298
67,0,1359
68,112,1381
69,34,1405
70,34,1445
71,17,1461
72,8,1483
73,108,1543
74,12,1551
75,90,1554
76,119,1557
77,4,1560
78,125,1573
79,131,1587
80,204,1596
81,94,1622
82,35,1636
83,7,1668
84,79,1687
85,35,1748
86,123,1762
87,214,1791
88,13,1817
89,87,1849
90,137,1884
91,4,1899
92,130,1917
93,83,1933
94,217,1945
95,220,1948
96,84,51866
97,24,51868
98,91,51877
99,87,51880
100,220,51883
101,220,51884
102,137,51886
103,98,51889
104,60,51890
105,120,51893
106,92,51897
107,134,51898
108,212,51911
109,23,51912
110,42,51913
111,73,51917
112,4,51918
113,11,51922
114,79,51926
115,45,51930
116,29,51931
117,97,51932
118,41,51934
119,132,51936
120,75,51941
121,18,51942
122,70,51948
123,70,51949
124,41,51950
125,127,51951
126,35,51952
127,65,51953
128,113,50591
129,129,50612
130,181,50634
131,34,50643
132,35,50644
133,92,50703
134,83,50711
135,79,50738
136,24,50778
137,185,50785
138,198,50830
139,55,50855
140,98,50861
141,73,50972
142,28,50993
143,45,51009
144,118,51071
145,16,51091
146,207,51112
147,213,51194
148,130,51207
149,64,51209
150,53,51221
151,104,51225
152,140,51230
153,62,51265
154,4,51280
155,86,51289
156,22,51307
157,54,51314
158,99,51337
159,97,51378
160,101,49463
161,77,49465
162,113,49471
163,73,49477
164,23,49480
165,193,49483
166,42,49484
167,34,49487
168,20,49488
169,98,49489
170,97,49492
171,98,49493
172,21,49494
173,179,49495
174,104,49498
175,19,49499
176,131,49512
177,43,49514
178,72,49518
179,35,49520
180,127,49522
181,35,49525
182,11,49528
183,216,49529
184,173,49530
185,35,49531
186,115,49532
187,35,49533
188,204,49538
189,209,49541
190,79,49545
191,198,49548
192,133,30624
193,180,30629
194,81,30630
195,58,30632
196,107,30634
197,109,30636
198,7,30641
199,92,30642
200,127,30645
201,0,30648
202,127,30651
203,180,30654
204,104,30656
205,211,30659
206,17,30660
207,17,30661
208,101,30662
209,119,30663
210,81,30666
211,11,30667
212,22,30669
213,82,30670
214,35,30673
215,112,30679
216,31,30681
217,34,30682
218,138,30685
219,217,30697
220,46,30708
221,78,30710
222,21,30715
223,139,30716
224,35,18946
225,52,18947
226,130,18953
227,49,18954
228,101,18959
229,118,18973
230,185,18975
231,117,18983
232,61,18994
233,185,19000
234,133,19007
235,118,19010
236,138,19011
237,52,19023
238,111,19027
239,16,19036
240,213,19038
241,193,19044
242,98,19048
243,121,19066
244,127,19083
245,217,19098
246,79,19105
247,135,19106
248,127,19107
249,45,19110
250,62,19120
251,70,19122
252,94,19137
253,108,19138
254,204,19141
255,120,19170
256,71,23731
257,133,23770
258,44,23772
259,34,23778
260,173,23783
261,118,23795
262,72,23805
263,62,23823
264,212,23830
265,67,23834
266,70,23850
267,123,23855
268,109,23864
269,167,23865
270,66,23870
271,106,23872
272,111,23873
273,23,23905
274,107,23908
275,76,23909
276,208,23913
277,17,23925
278,109,23929
279,209,23962
280,107,23964
281,69,23970
282,220,23972
283,31,23976
284,12,23987
285,11,23996
286,69,24004
287,30,24017
288,16,56142
289,19,56152
290,213,56153
291,49,56154
292,71,56156
293,29,56157
294,198,56158
295,17,56159
296,90,56161
297,30,56163
298,198,56165
299,8,56172
300,15,56173
301,195,56174
302,185,56176
303,11,56177
304,61,56178
305,209,56180
306,179,56184
307,198,56185
308,220,56186
309,173,56189
310,207,56191
311,110,56193
312,108,56195
313,112,56196
314,57,56198
315,211,56200
316,60,56201
317,19,56203
318,110,56207
319,55,56208
320,57,51670
321,181,51672
322,131,51673
323,91,51675
324,123,51676
325,180,51677
326,131,51680
327,77,51683
328,73,51687
329,99,51691
330,58,51692
331,216,51695
332,71,51697
333,65,51702
334,33,51703
335,193,51704
336,204,51713
337,53,51714
338,108,51716
339,62,51719
340,92,51722
341,40,51724
342,64,51725
343,198,51733
344,70,51735
345,30,51739
346,36,51740
347,58,51746
348,65,51747
349,84,51753
350,217,51757
351,3,51760
352,143,20327
353,137,20343
354,70,20344
355,118,20352
356,138,20353
357,84,20357
358,193,20363
359,94,20372
360,76,20375
361,51,20387
362,46,20391
363,111,20404
364,61,20408
365,38,20410
366,124,20414
367,128,20429
368,118,20432
369,81,20448
370,193,20461
371,78,20469
372,87,20490
373,76,20509
374,216,20519
375,208,20530
376,91,20535
377,76,20539
378,12,20542
379,55,20570
380,20,20573
381,11,20582
382,6,20600
383,49,20603
384,85,37701
385,91,37710
386,93,37717
387,27,37724
388,163,37740
389,139,37762
390,118,37766
391,16,37774
392,63,37776
393,212,37791
394,3,37793
395,173,37798
396,3,37811
397,4,37819
398,92,37820
399,58,37849
400,46,37862
401,90,37863
402,94,37866
403,9,37869
404,204,37870
405,133,37871
406,28,37874
407,55,37885
408,32,37906
409,111,37909
410,84,37912
411,140,37918
412,8,37922
413,91,37925
414,91,37927
415,70,37928
416,97,19531
417,111,19536
418,35,19543
419,82,19547
420,13,19550
421,19,19553
422,70,19557
423,217,19561
424,70,19571
425,207,19572
426,213,19591
427,76,19601
428,29,19635
429,49,19641
430,59,19670
431,69,19675
432,141,19678
433,207,19681
434,12,19703
435,78,19710
436,211,19712
437,16,19719
438,109,19734
439,128,19751
440,92,19753
441,214,19755
442,11,19759
443,114,19767
444,87,19770
445,41,19777
446,9,19794
447,195,19844
448,217,38646
449,87,38647
450,143,38658
451,198,38663
452,72,38671
453,209,38675
454,94,38679
455,87,38683
456,212,38684
457,34,38687
458,66,38692
459,193,38694
460,220,38698
461,49,38706
462,116,38710
463,78,38715
464,36,38735
465,16,38738
466,53,38748
467,4,38753
468,217,38755
469,64,38762
470,83,38768
471,17,38769
472,208,38772
473,12,38787
474,35,38805
475,92,38806
476,209,38807
477,220,38808
478,108,38809
479,99,38813
480,40,22589
481,207,22602
482,19,22606
483,120,22619
484,15,22629
485,114,22631
486,118,22633
487,130,22635
488,109,22639
489,91,22640
490,212,22716
491,71,22719
492,40,22725
493,61,22727
494,70,22732
495,63,22768
496,39,22772
497,70,22793
498,135,22801
499,118,22808
500,129,22815
501,220,22816
502,137,22852
503,70,22876
504,140,22894
505,107,22896
506,3,22903
507,4,22912
508,112,22917
509,64,22938
510,127,22941
511,52,22942
512,125,1794
513,97,2013
514,87,2110
515,46,2143
516,9,2321
517,71,2769
518,0,2954
519,101,3094
520,198,3178
521,26,3213
522,0,3227
523,104,3330
524,104,3491
525,158,3597
526,4,3652
527,40,3712
528,77,3802
529,110,3823
530,96,3959
531,65,3964
532,71,4043
533,51,4059
534,78,4121
535,95,4152
536,73,4314
537,106,4502
538,38,4572
539,125,4582
540,69,4588
541,135,4646
542,138,4672
543,138,4717
544,204,52706
545,119,52827
546,86,53183
547,45,53268
548,163,53474
549,133,53521
550,107,53630
551,193,53720
552,52,53944
553,4,53953
554,38,54009
555,139,54096
556,30,54354
557,155,54356
558,119,54742
559,92,54888
560,134,54962
561,57,55485
562,163,55582
563,31,55593
564,193,55609
565,79,55639
566,17,56072
567,195,56966
568,13,69
569,35,292
570,69,360
571,14,374
572,55,507
573,35,525
574,94,614
575,80,655
576,14,54365
577,83,54367
578,65,54371
579,138,54373
580,55,54377
581,107,54379
582,66,54383
583,47,54389
584,71,54390
585,80,54392
586,123,54394
587,124,54395
588,217,54396
589,195,54397
590,91,54400
591,4,54406
592,84,54408
593,135,54411
594,60,54412
595,62,54415
596,97,54419
597,129,54423
598,132,54428
599,79,54429
600,99,54431
601,68,54434
602,59,54439
603,35,54445
604,54,54446
605,56,54447
606,128,54448
607,71,54451
608,19,47895
609,111,47896
610,173,47897
611,82,47899
612,20,47908
613,101,47914
614,57,47918
615,86,47920
616,75,47928
617,3,47943
618,95,47947
619,83,47956
620,23,47959
621,20,47974
622,108,47988
623,123,47991
624,6,47994
625,131,48012
626,103,48024
627,84,48025
628,195,48035
629,217,48044
630,0,48048
631,99,48051
632,140,48052
633,173,48057
634,96,48065
635,65,48070
636,4,48071
637,207,48088
638,90,48100
639,57,48101
640,173,19053
641,11,19055
642,41,19077
643,37,19080
644,108,19082
645,55,19090
646,208,19100
647,87,19101
648,158,19124
649,3,19128
650,96,19130
651,31,19135
652,94,19140
653,9,19147
654,198,19148
655,28,19150
656,140,19154
657,94,19155
658,4,19161
659,68,19178
660,220,19182
661,65,19188
662,70,19196
663,34,19229
664,121,19234
665,217,19248
666,179,19259
667,132,19283
668,11,19288
669,69,19302
670,87,19312
671,141,19314
672,23,7369
673,78,7370
674,87,7380
675,16,7427
676,100,7436
677,62,7445
678,12,7480
679,4,7485
680,78,7486
681,134,7492
682,8,7497
683,17,7501
684,21,7504
685,181,7505
686,220,7517
687,91,7518
688,28,7524
689,1,7540
690,173,7547
691,0,7575
692,2,7579
693,20,7598
694,17,7623
695,19,7632
696,195,7634
697,181,7636
698,49,7638
699,2,7647
700,42,7691
701,113,7707
702,3,7734
703,123,7779
704,33,34361
705,116,34362
706,12,34380
707,134,34384
708,61,34385
709,118,34387
710,114,34394
711,98,34398
712,216,34408
713,59,34418
714,181,34423
715,87,34427
716,45,34432
717,204,34434
718,140,34445
719,204,34449
720,209,34453
721,108,34455
722,213,34462
723,28,34479
724,40,34497
725,119,34508
726,40,34516
727,97,34518
728,180,34520
729,123,34521
730,47,34525
731,34,34534
732,209,34539
733,213,34545
734,73,34549
735,207,34551
736,114,23431
737,137,23439
738,83,23444
739,108,23449
740,35,23450
741,19,23457
742,99,23460
743,88,23469
744,116,23473
745,7,23478
746,220,23511
747,217,23519
748,78,23521
749,73,23523
750,114,23529
751,132,23551
752,132,23554
753,131,23563
754,8,23572
755,55,23577
756,35,23588
757,179,23597
758,204,23601
759,71,23609
760,214,23619
761,173,23620
762,120,23640
763,37,23673
764,58,23687
765,79,23692
766,198,23709
767,79,23727
768,185,43930
769,135,43942
770,62,43969
771,179,44022
772,217,44051
773,204,44060
774,20,44068
775,207,44092
776,96,44093
777,3,44176
778,83,44178
779,163,44272
780,128,44285
781,100,44407
782,30,44524
783,167,44552
784,98,44629
785,173,44780
786,65,44804
787,92,44856
788,35,44858
789,209,44903
790,45,45014
791,123,45134
792,108,45141
793,207,45225
794,208,45339
795,179,45341
796,179,45379
797,44,45438
798,78,45514
799,44,45529
800,181,17982
801,106,18007
802,21,18029
803,47,18031
804,87,18034
805,82,18076
806,59,18093
807,140,18105
808,62,18107
809,100,18113
810,98,18134
811,3,18136
812,47,18143
813,130,18154
814,120,18163
815,137,18195
816,213,18220
817,103,18221
818,64,18294
819,139,18296
820,185,18299
821,135,18306
822,141,18313
823,23,18315
824,16,18328
825,217,18330
826,139,18332
827,116,18335
828,181,18340
829,64,18345
830,121,18349
831,51,18358
832,41,5948
833,204,5955
834,9,5979
835,67,5996
836,71,6064
837,140,6065
838,207,6088
839,20,6091
840,87,6106
841,35,6107
842,96,6109
843,123,6116
844,204,6157
845,46,6180
846,132,6269
847,12,6347
848,52,6364
849,126,6461
850,72,6526
851,208,6532
852,60,6564
853,70,6577
854,54,6600
855,13,6627
856,141,6628
857,28,6663
858,26,6767
859,66,6768
860,3,6815
861,42,6896
862,135,6904
863,108,6949
864,52,29237
865,58,29240
866,138,29281
867,12,29324
868,88,29327
869,37,29328
870,43,29344
871,123,29349
872,135,29365
873,133,29370
874,207,29373
875,109,29380
876,204,29391
877,34,29402
878,129,29418
879,198,29428
880,8,29433
881,62,29434
882,211,29459
883,198,29468
884,71,29480
885,62,29512
886,58,29517
887,34,29534
888,220,29540
889,214,29587
890,107,29593
891,121,29596
892,98,29612
893,135,29614
894,43,29618
895,132,29625
896,207,23238
897,81,23239
898,58,23259
899,13,23269
900,43,23284
901,68,23291
902,73,23305
903,98,23310
904,3,23323
905,180,23332
906,131,23337
907,84,23346
908,127,23352
909,67,23367
910,27,23401
911,139,23407
912,100,23410
913,28,23414
914,65,23415
915,217,23416
916,127,23419
917,50,23435
918,80,23436
919,24,23440
920,67,23441
921,134,23442
922,124,23446
923,132,23463
924,3,23465
925,128,23468
926,64,23470
927,17,23495
928,68,44244
929,64,44248
930,107,44249
931,20,44254
932,195,44261
933,70,44270
934,83,44278
935,214,44289
936,179,44295
937,35,44296
938,99,44300
939,52,44307
940,46,44309
941,138,44315
942,13,44322
943,47,44328
944,138,44332
945,163,44338
946,72,44343
947,128,44350
948,90,44351
949,24,44352
950,99,44369
951,209,44372
952,0,44373
953,115,44398
954,46,44425
955,84,44427
956,131,44432
957,0,44439
958,143,44452
959,140,44461
960,123,12001
961,136,12027
962,11,12029
963,204,12057
964,8,12059
965,140,12110
966,4,12122
967,139,12183
968,193,12189
969,167,12194
970,137,12246
971,173,12340
972,70,12348
973,99,12351
974,106,12366
975,13,12377
976,94,12384
977,104,12396
978,27,12408
979,111,12455
980,204,12458
981,77,12470
982,127,12480
983,207,12485
984,72,12490
985,213,12492
986,77,12555
987,179,12592
988,21,12650
989,44,12679
990,83,12743
991,65,12769
992,52,44589
993,29,44591
994,88,44593
995,127,44601
996,84,44611
997,68,44617
998,84,44623
999,123,44624
1000,220,44626
1001,91,44635
1002,55,44636
1003,143,44638
1004,98,44640
1005,16,44648
1006,58,44650
1007,51,44651
1008,143,44657
1009,8,44661
1010,27,44665
1011,212,44668
1012,158,44674
1013,217,44683
1014,136,44685
1015,180,44688
1016,134,44690
1017,34,44693
1018,16,44695
1019,208,44696
1020,132,44698
1021,63,44706
1022,158,44711
1023,81,44716
1024,78,40814
1025,8,40815
1026,98,40821
1027,6,40828
1028,63,40832
1029,84,40846
1030,91,40878
1031,109,40879
1032,6,40881
1033,72,40882
1034,111,40885
1035,88,40892
1036,90,40903
1037,12,40906
1038,0,40912
1039,34,40918
1040,19,40919
1041,65,40932
1042,107,40935
1043,107,40937
1044,179,40942
1045,67,40945
1046,83,40952
1047,217,40955
1048,132,40965
1049,34,40971
1050,68,40991
1051,131,40999
1052,127,41006
1053,137,41011
1054,45,41013
1055,27,41015
1056,95,404
1057,66,422
1058,83,471
1059,59,502
1060,91,512
1061,35,513
1062,52,514
1063,207,518
1064,173,528
1065,138,540
1066,52,546
1067,55,577
1068,4,604
1069,26,646
1070,87,647
1071,132,653
1072,53,663
1073,119,671
1074,204,689
1075,45,691
1076,3,725
1077,34,751
1078,0,754
1079,131,763
1080,63,792
1081,70,797
1082,204,798
1083,49,800
1084,195,814
1085,26,865
1086,13,866
1087,104,896
1088,41,45961
1089,216,45965
1090,43,45966
1091,49,45970
1092,163,45971
1093,74,45973
1094,193,45978
1095,20,45980
1096,11,45984
1097,118,45985
1098,185,45986
1099,116,45989
1100,44,45993
1101,118,45996
1102,217,45997
1103,111,46000
1104,71,46001
1105,216,46006
1106,120,46009
1107,217,46011
1108,95,46020
1109,57,46022
1110,0,46024
1111,136,46025
1112,125,46030
1113,135,46031
1114,67,46038
1115,34,46043
1116,132,46048
1117,6,46050
1118,20,46054
1119,204,46055
1120,64,29677
1121,117,29687
1122,107,29689
1123,70,29690
1124,98,29694
1125,69,29700
1126,99,29704
1127,72,29707
1128,139,29711
1129,113,29724
1130,43,29733
1131,73,29736
1132,173,29737
1133,88,29738
1134,88,29740
1135,158,29741
1136,110,29745
1137,0,29747
1138,117,29757
1139,34,29773
1140,79,29774
1141,132,29784
1142,155,29788
1143,68,29791
1144,13,29792
1145,208,29799
1146,217,29803
1147,29,29807
1148,108,29813
1149,143,29815
1150,127,29816
1151,33,29822
1152,84,37165
1153,181,37243
1154,220,37310
1155,20,37348
1156,55,37413
1157,109,37626
1158,47,37641
1159,214,37833
1160,58,37896
1161,125,37993
1162,101,38075
1163,82,38452
1164,127,38887
1165,140,39179
1166,136,39347
1167,126,40487
1168,220,41289
1169,91,41298
1170,58,41367
1171,118,41382
1172,92,41505
1173,51,41580
1174,63,41643
1175,130,42065
1176,46,42088
1177,49,42149
1178,17,42430
1179,51,42458
1180,37,42645
1181,95,42713
1182,207,42985
1183,113,43822
1184,16,44930
1185,34,44959
1186,179,44975
1187,92,44994
1188,16,45012
1189,81,45027
1190,21,45034
1191,60,45046
1192,16,45057
1193,136,45060
1194,87,45083
1195,140,45092
1196,35,45098
1197,114,45100
1198,116,45107
1199,58,45132
1200,193,45146
1201,193,45152
1202,39,45193
1203,141,45196
1204,3,45213
1205,139,45256
1206,141,45272
1207,34,45278
1208,19,45363
1209,207,45371
1210,58,45380
1211,198,45390
1212,4,45407
1213,109,45423
1214,70,45428
1215,48,45430
1216,195,45567
1217,12,45571
1218,124,45587
1219,20,45590
1220,207,45617
1221,129,45629
1222,127,45632
1223,1,45648
1224,92,45661
1225,25,45672
1226,158,45678
1227,134,45716
1228,81,45719
1229,133,45721
1230,54,45732
1231,163,45744
1232,2,45747
1233,94,45748
1234,75,45754
1235,87,45776
1236,100,45777
1237,0,45780
1238,81,45794
1239,58,45797
1240,23,45803
1241,130,45825
1242,211,45826
1243,209,45829
1244,106,45844
1245,140,45864
1246,68,45877
1247,123,45879
1248,90,35386
1249,72,35391
1250,207,35394
1251,44,35403
1252,135,35419
1253,185,35429
1254,88,35433
1255,71,35467
1256,7,35469
1257,59,35478
1258,140,35481
1259,213,35489
1260,64,35492
1261,81,35495
1262,70,35499
1263,13,35502
1264,90,35505
1265,138,35512
1266,214,35519
1267,28,35527
1268,21,35529
1269,118,35534
1270,124,35536
1271,211,35538
1272,109,35540
1273,207,35555
1274,111,35565
1275,134,35573
1276,124,35574
1277,64,35577
1278,8,35585
1279,86,35603
1280,3,41179
1281,214,41183
1282,217,41192
1283,127,41201
1284,113,41205
1285,81,41211
1286,47,41223
1287,84,41224
1288,108,41251
1289,137,41260
1290,94,41269
1291,80,41290
1292,45,41301
1293,115,41314
1294,111,41328
1295,47,41343
1296,10,41360
1297,163,41369
1298,58,41414
1299,214,41417
1300,137,41441
1301,217,41455
1302,135,41476
1303,28,41478
1304,124,41485
1305,94,41487
1306,54,41490
1307,130,41499
1308,124,41520
1309,33,41537
1310,141,41543
1311,38,41560
1312,33,40861
1313,65,40862
1314,214,40863
1315,34,40865
1316,62,40866
1317,9,40870
1318,21,40887
1319,91,40888
1320,101,40891
1321,48,40898
1322,141,40900
1323,13,40901
1324,70,40907
1325,4,40908
1326,37,40910
1327,204,40913
1328,6,40914
1329,61,40915
1330,126,40916
1331,127,40926
1332,96,40927
1333,82,40928
1334,94,40931
1335,12,40936
1336,127,40943
1337,155,40949
1338,28,40958
1339,207,40974
1340,3,40975
1341,7,40980
1342,84,40986
1343,67,40989
1344,173,52845
1345,55,52849
1346,209,52852
1347,68,52856
1348,131,52859
1349,71,52869
1350,127,52873
1351,118,52878
1352,72,52879
1353,79,52882
1354,72,52895
1355,123,52896
1356,11,52905
1357,8,52912
1358,83,52913
1359,78,52920
1360,24,52925
1361,155,52927
1362,76,52945
1363,137,52947
1364,58,52949
1365,34,52954
1366,63,52963
1367,34,52967
1368,131,52968
1369,43,52987
1370,31,52992
1371,41,52993
1372,52,52994
1373,63,53000
1374,65,53003
1375,198,53015
1376,16,7678
1377,137,7681
1378,99,7703
1379,70,7721
1380,208,7722
1381,87,7727
1382,72,7736
1383,35,7747
1384,216,7756
1385,180,7762
1386,173,7764
1387,78,7770
1388,6,7776
1389,138,7777
1390,163,7783
1391,45,7791
1392,26,7793
1393,140,7802
1394,21,7808
1395,158,7809
1396,180,7827
1397,123,7838
1398,53,7843
1399,67,7854
1400,43,7860
1401,62,7864
1402,35,7867
1403,107,7874
1404,195,7887
1405,158,7912
1406,3,7914
1407,96,7922
1408,208,15232
1409,13,15253
1410,109,15303
1411,208,15353
1412,76,15366
1413,65,15386
1414,48,15401
1415,20,15441
1416,140,15442
1417,57,15450
1418,198,15461
1419,4,15491
1420,31,15492
1421,68,15501
1422,63,15511
1423,63,15520
1424,26,15588
1425,51,15621
1426,113,15634
1427,24,15670
1428,60,15694
1429,13,15707
1430,32,15726
1431,42,15746
1432,52,15754
1433,20,15775
1434,52,15784
1435,73,15795
1436,75,15830
1437,39,15881
1438,128,15885
1439,3,15892
1440,131,32159
1441,87,32167
1442,88,32181
1443,15,32188
1444,140,32201
1445,41,32203
1446,111,32206
1447,110,32216
1448,17,32217
1449,21,32219
1450,208,32223
1451,94,32226
1452,173,32228
1453,4,32235
1454,119,32238
1455,35,32239
1456,58,32244
1457,78,32246
1458,52,32249
1459,42,32250
1460,94,32254
1461,179,32260
1462,135,32263
1463,131,32267
1464,81,32268
1465,207,32269
1466,94,32272
1467,131,32273
1468,73,32276
1469,8,32280
1470,20,32287
1471,195,32290
1472,7,27749
1473,37,27789
1474,94,27846
1475,138,27914
1476,134,27918
1477,88,27945
1478,141,27962
1479,55,27979
1480,55,28170
1481,42,28237
1482,70,28250
1483,204,28481
1484,87,28629
1485,19,28640
1486,207,28661
1487,216,28673
1488,64,28754
1489,0,28786
1490,220,28810
1491,121,28815
1492,9,28821
1493,90,28870
1494,128,28886
1495,6,28945
1496,73,29048
1497,100,29080
1498,124,29137
1499,80,29193
1500,106,29253
1501,214,29259
1502,68,29271
1503,47,29286
1504,35,28310
1505,32,28334
1506,138,28342
1507,158,28350
1508,65,28351
1509,14,28374
1510,94,28392
1511,105,28425
1512,112,28432
1513,65,28477
1514,79,28501
1515,35,28512
1516,0,28550
1517,124,28560
1518,20,28569
1519,98,28578
1520,12,28580
1521,211,28594
1522,136,28676
1523,132,28680
1524,65,28701
1525,120,28730
1526,134,28740
1527,195,28781
1528,23,28792
1529,92,28796
1530,214,28797
1531,58,28801
1532,106,28848
1533,51,28874
1534,128,28923
1535,44,28960
1536,137,49671
1537,111,49676
1538,99,49677
1539,109,49679
1540,70,49684
1541,76,49685
1542,12,49686
1543,62,49690
1544,204,49693
1545,20,49694
1546,8,49696
1547,92,49697
1548,198,49700
1549,63,49702
1550,60,49703
1551,94,49704
1552,180,49705
1553,19,49706
1554,91,49707
1555,29,49709
1556,213,49710
1557,195,49711
1558,12,49712
1559,119,49714
1560,40,49716
1561,113,49717
1562,49,49719
1563,138,49720
1564,52,49721
1565,106,49722
1566,87,49723
1567,14,49724
1568,3,29379
1569,16,29381
1570,198,29382
1571,0,29394
1572,99,29397
1573,127,29401
1574,216,29404
1575,118,29405
1576,63,29408
1577,213,29423
1578,35,29426
1579,108,29427
1580,64,29438
1581,68,29446
1582,81,29453
1583,24,29454
1584,109,29455
1585,141,29456
1586,204,29467
1587,209,29470
1588,62,29472
1589,47,29481
1590,111,29483
1591,64,29484
1592,193,29487
1593,124,29488
1594,23,29506
1595,72,29516
1596,113,29521
1597,193,29526
1598,109,29532
1599,98,29536
1600,124,33643
1601,116,33645
1602,116,33649
1603,37,33660
1604,37,33671
1605,58,33682
1606,41,33717
1607,125,33732
1608,2,33740
1609,40,33749
1610,51,33750
1611,133,33754
1612,76,33767
1613,91,33796
1614,64,33816
1615,204,33821
1616,138,33823
1617,8,33827
1618,127,33830
1619,64,33839
1620,137,33852
1621,113,33857
1622,131,33868
1623,42,33870
1624,120,33872
1625,87,33875
1626,51,33880
1627,29,33881
1628,167,33900
1629,98,33908
1630,101,33917
1631,60,33920
1632,216,27764
1633,59,27769
1634,71,27770
1635,116,27787
1636,204,27793
1637,59,27798
1638,215,27805
1639,7,27810
1640,62,27821
1641,61,27823
1642,67,27827
1643,185,27838
1644,51,27841
1645,101,27854
1646,70,27856
1647,139,27875
1648,40,27887
1649,135,27896
1650,72,27908
1651,66,27909
1652,35,27921
1653,216,27932
1654,167,27936
1655,4,27943
1656,117,27949
1657,114,27953
1658,113,27954
1659,98,27971
1660,99,27980
1661,0,27983
1662,53,27985
1663,65,27991
1664,16,51684
1665,117,51686
1666,97,51694
1667,99,51699
1668,216,51700
1669,217,51709
1670,41,51711
1671,62,51715
1672,124,51717
1673,57,51730
1674,116,51732
1675,46,51734
1676,86,51736
1677,64,51744
1678,84,51749
1679,109,51754
1680,111,51776
1681,24,51783
1682,198,51792
1683,204,51798
1684,139,51801
1685,204,51802
1686,65,51803
1687,20,51804
1688,136,51808
1689,37,51814
1690,28,51816
1691,84,51821
1692,107,51834
1693,14,51837
1694,63,51840
1695,91,51844
1696,77,18963
1697,96,19043
1698,111,19058
1699,137,19068
1700,109,19069
1701,3,19070
1702,180,19127
1703,116,19134
1704,28,19143
1705,61,19151
1706,20,19157
1707,217,19162
1708,131,19168
1709,118,19192
1710,84,19194
1711,97,19203
1712,65,19223
1713,76,19277
1714,125,19370
1715,53,19380
1716,19,19442
1717,76,19451
1718,84,19454
1719,212,19485
1720,131,19488
1721,72,19554
1722,79,19629
1723,137,19647
1724,49,19826
1725,20,19833
1726,64,19836
1727,104,19902
1728,56,52933
1729,64,52934
1730,136,52952
1731,111,52969
1732,135,52977
1733,107,53005
1734,212,53007
1735,158,53038
1736,41,53045
1737,65,53048
1738,101,53050
1739,204,53057
1740,66,53060
1741,131,53067
1742,13,53072
1743,28,53079
1744,131,53081
1745,59,53088
1746,91,53094
1747,111,53095
1748,111,53096
1749,92,53108
1750,28,53109
1751,94,53114
1752,88,53120
1753,198,53132
1754,8,53152
1755,4,53158
1756,51,53163
1757,14,53164
1758,87,53184
1759,158,53188
1760,94,1236
1761,92,1248
1762,0,1320
1763,71,1335
1764,112,1390
1765,131,1397
1766,13,1398
1767,20,1399
1768,123,1408
1769,6,1417
1770,67,1424
1771,137,1442
1772,9,1479
1773,69,1491
1774,33,1523
1775,20,1547
1776,68,1571
1777,60,1576
1778,104,1625
1779,49,1630
1780,217,1662
1781,65,1667
1782,51,1704
1783,0,1736
1784,51,1775
1785,61,1835
1786,61,1850
1787,98,1866
1788,51,1872
1789,0,1894
1790,23,1908
1791,193,1921
1792,2,28720
1793,6,28737
1794,84,28743
1795,95,28746
1796,13,28747
1797,22,28748
1798,2,28751
1799,107,28752
1800,61,28753
1801,19,28756
1802,117,28765
1803,195,28772
1804,3,28774
1805,128,28788
1806,138,28789
1807,87,28791
1808,180,28811
1809,128,28818
1810,35,28820
1811,45,28822
1812,118,28824
1813,28,28826
1814,137,28827
1815,49,28845
1816,113,28849
1817,43,28852
1818,91,28857
1819,35,28878
1820,4,28879
1821,195,28882
1822,109,28884
1823,118,28900
1824,0,5472
1825,180,5524
1826,213,5558
1827,113,5566
1828,52,5581
1829,49,5656
1830,137,5815
1831,193,5939
1832,99,6061
1833,99,6103
1834,139,6119
1835,113,6168
1836,124,6188
1837,127,6299
1838,106,6300
1839,60,6437
1840,69,6613
1841,27,6618
1842,33,6737
1843,47,6919
1844,91,7564
1845,214,9926
1846,62,9929
1847,209,10202
1848,212,10286
1849,57,10397
1850,46,10443
1851,64,10530
1852,72,10670
1853,110,10823
1854,104,11214
1855,193,11250
1856,6,42222
1857,90,42226
1858,108,42229
1859,132,42233
1860,158,42252
1861,19,42255
1862,17,42259
1863,67,42264
1864,76,42277
1865,100,42282
1866,52,42284
1867,29,42287
1868,19,42297
1869,132,42299
1870,120,42306
1871,17,42309
1872,139,42310
1873,17,42311
1874,209,42320
1875,33,42326
1876,107,42327
1877,73,42330
1878,131,42342
1879,106,42352
1880,35,42355
1881,61,42361
1882,111,42377
1883,116,42395
1884,92,42397
1885,47,42404
1886,124,42416
1887,16,42422
1888,61,21711
1889,138,21730
1890,125,21734
1891,79,21739
1892,143,21743
1893,38,21753
1894,124,21754
1895,138,21759
1896,127,21761
1897,61,21786
1898,42,21793
1899,99,21797
1900,120,21803
1901,143,21806
1902,212,21811
1903,28,21868
1904,91,21885
1905,61,21895
1906,75,21896
1907,96,21924
1908,70,21925
1909,129,21933
1910,214,21934
1911,84,21936
1912,58,21937
1913,68,21942
1914,47,21949
1915,84,21955
1916,92,21971
1917,53,21973
1918,35,21978
1919,40,21988
1920,70,14613
1921,34,14665
1922,217,14675
1923,106,14683
1924,20,14686
1925,109,14703
1926,99,14723
1927,213,14724
1928,204,14729
1929,58,14733
1930,72,14785
1931,193,14787
1932,97,14839
1933,53,14850
1934,129,14871
1935,73,14877
1936,14,14879
1937,9,14905
1938,11,15020
1939,207,15033
1940,119,15066
1941,179,15076
1942,32,15088
1943,16,15153
1944,19,15154
1945,10,15159
1946,4,15162
1947,59,15196
1948,14,15202
1949,19,15211
1950,12,15212
1951,75,15223
1952,0,17003
1953,8,17005
1954,136,17020
1955,158,17026
1956,2,17027
1957,64,17031
1958,34,17050
1959,181,17052
1960,37,17057
1961,128,17062
1962,59,17066
1963,70,17069
1964,68,17089
1965,12,17091
1966,21,17103
1967,110,17109
1968,76,17117
1969,35,17132
1970,87,17138
1971,87,17151
1972,96,17166
1973,209,17182
1974,28,17191
1975,76,17215
1976,173,17226
1977,104,17244
1978,116,17250
1979,71,17266
1980,216,17267
1981,100,17268
1982,66,17274
1983,139,17276
1984,82,12531
1985,128,12537
1986,112,12540
1987,125,12547
1988,41,12548
1989,127,12551
1990,67,12601
1991,21,12634
1992,103,12639
1993,35,12640
1994,97,12643
1995,180,12667
1996,129,12676
1997,36,12690
1998,40,12698
1999,220,12705
2000,52,12728
2001,41,12774
2002,214,12785
2003,127,12826
2004,37,12829
2005,125,12841
2006,52,12843
2007,28,12851
2008,134,12882
2009,87,12889
2010,109,12897
2011,84,12902
2012,59,12907
2013,185,12919
2014,138,12925
2015,8,12939
2016,16,21240
2017,61,21254
2018,131,21260
2019,133,21261
2020,217,21274
2021,65,21288
2022,107,21324
2023,61,21340
2024,17,21352
2025,220,21359
2026,71,21368
2027,42,21375
2028,8,21410
2029,41,21417
2030,133,21421
2031,100,21445
2032,131,21448
2033,31,21453
2034,68,21462
2035,193,21465
2036,64,21466
2037,220,21469
2038,83,21475
2039,57,21501
2040,121,21504
2041,55,21506
2042,195,21543
2043,91,21561
2044,53,21566
2045,138,21568
2046,95,21571
2047,90,21586
2048,64,15793
2049,195,15831
2050,83,15834
2051,179,15846
2052,97,15852
2053,99,15861
2054,198,15865
2055,51,15876
2056,34,15884
2057,68,15898
2058,111,15928
2059,76,15931
2060,68,15932
2061,13,15948
2062,82,15959
2063,108,15962
2064,82,15975
2065,83,16016
2066,108,16022
2067,54,16036
2068,17,16041
2069,84,16057
2070,103,16070
2071,202,16074
2072,214,16077
2073,72,16081
2074,95,16082
2075,107,16089
2076,124,16115
2077,125,16129
2078,1,16152
2079,111,16155
2080,104,8222
2081,49,8229
2082,24,8237
2083,84,8241
2084,71,8252
2085,6,8253
2086,121,8258
2087,65,8261
2088,8,8266
2089,32,8273
2090,104,8276
2091,81,8294
2092,35,8310
2093,20,8323
2094,6,8336
2095,19,8350
2096,96,8351
2097,212,8358
2098,31,8362
2099,135,8366
2100,29,8371
2101,100,8373
2102,134,8376
2103,0,8383
2104,12,8386
2105,140,8398
2106,133,8402
2107,19,8404
2108,94,8412
2109,13,8414
2110,89,8422
2111,137,8436
2112,32,1932
2113,43,1976
2114,19,1992
2115,112,2067
2116,55,2070
2117,58,2085
2118,80,2135
2119,140,2136
2120,220,2181
2121,109,2213
2122,0,2230
2123,47,2233
2124,101,2342
2125,195,2387
2126,83,2390
2127,211,2410
2128,92,2457
2129,133,2477
2130,98,2498
2131,138,2578
2132,46,2613
2133,43,2614
2134,7,2635
2135,6,2665
2136,128,2688
2137,20,2698
2138,204,2722
2139,135,2754
2140,128,2818
2141,40,2830
2142,220,2916
2143,52,2931
2144,63,42116
2145,17,42142
2146,34,42144
2147,31,42161
2148,108,42176
2149,52,42182
2150,130,42190
2151,16,42207
2152,41,42227
2153,209,42234
2154,23,42243
2155,12,42245
2156,73,42247
2157,94,42267
2158,16,42274
2159,127,42279
2160,140,42280
2161,54,42300
2162,71,42303
2163,99,42314
2164,8,42329
2165,109,42332
2166,137,42345
2167,45,42369
2168,26,42370
2169,127,42381
2170,113,42386
2171,0,42390
2172,112,42411
2173,109,42412
2174,34,42441
2175,127,42444
2176,138,55061
2177,93,55063
2178,136,55065
2179,34,55066
2180,11,55071
2181,134,55075
2182,216,55078
2183,67,55083
2184,69,55084
2185,193,55086
2186,127,55099
2187,111,55107
2188,43,55111
2189,91,55138
2190,34,55139
2191,78,55140
2192,64,55142
2193,31,55148
2194,3,55155
2195,211,55157
2196,139,55160
2197,78,55162
2198,198,55168
2199,155,55193
2200,12,55194
2201,88,55196
2202,107,55202
2203,1,55209
2204,31,55216
2205,20,55233
2206,23,55234
2207,118,55239
2208,97,49068
2209,8,49071
2210,35,49101
2211,131,49110
2212,94,49111
2213,53,49115
2214,58,49120
2215,208,49122
2216,73,49150
2217,24,49165
2218,123,49168
2219,124,49174
2220,65,49222
2221,35,49230
2222,140,49257
2223,104,49317
2224,84,49326
2225,46,49436
2226,217,49439
2227,32,49481
2228,123,49490
2229,11,49517
2230,7,49527
2231,111,49580
2232,116,49640
2233,124,49662
2234,179,49755
2235,127,49761
2236,94,49774
2237,35,49793
2238,139,49801
2239,4,49804
2240,11,35401
2241,68,35406
2242,134,35409
2243,209,35410
2244,180,35411
2245,163,35422
2246,20,35423
2247,220,35424
2248,40,35425
2249,53,35426
2250,179,35437
2251,63,35440
2252,88,35442
2253,179,35448
2254,140,35452
2255,35,35460
2256,115,35471
2257,33,35474
2258,140,35477
2259,64,35494
2260,4,35496
2261,91,35498
2262,216,35507
2263,137,35522
2264,43,35523
2265,126,35524
2266,80,35543
2267,118,35560
2268,216,35569
2269,3,35571
2270,216,35580
2271,128,35581
2272,42,56736
2273,58,56745
2274,19,56748
2275,73,56750
2276,127,56752
2277,179,56754
2278,181,56755
2279,46,56756
2280,133,56757
2281,79,56758
2282,119,56759
2283,7,56763
2284,213,56764
2285,193,56768
2286,26,56772
2287,104,56774
2288,96,56776
2289,84,56780
2290,78,56782
2291,128,56788
2292,35,56792
2293,136,56793
2294,40,56794
2295,116,56795
2296,84,56797
2297,54,56799
2298,108,56800
2299,19,56801
2300,78,56803
2301,21,56804
2302,46,56805
2303,0,56807
2304,61,45650
2305,15,45652
2306,143,45654
2307,118,45664
2308,131,45673
2309,20,45674
2310,21,45677
2311,34,45680
2312,143,45682
2313,70,45689
2314,198,45693
2315,58,45698
2316,127,45700
2317,135,45704
2318,134,45708
2319,48,45714
2320,34,45718
2321,132,45720
2322,198,45722
2323,65,45726
2324,106,45727
2325,139,45730
2326,68,45738
2327,62,45749
2328,3,45755
2329,13,45756
2330,68,45758
2331,111,45759
2332,42,45764
2333,127,45770
2334,70,45773
2335,212,45775
2336,8,8468
2337,77,8470
2338,60,8501
2339,9,8504
2340,119,8508
2341,106,8511
2342,72,8512
2343,58,8522
2344,12,8529
2345,95,8530
2346,81,8536
2347,140,8585
2348,20,8592
2349,35,8598
2350,20,8599
2351,217,8610
2352,207,8615
2353,167,8626
2354,61,8648
2355,21,8649
2356,77,8669
2357,23,8683
2358,12,8686
2359,204,8688
2360,100,8689
2361,60,8694
2362,91,8700
2363,106,8712
2364,51,8714
2365,111,8728
2366,21,8736
2367,58,8739
2368,66,44551
2369,204,44554
2370,61,44555
2371,81,44557
2372,0,44558
2373,138,44559
2374,80,44562
2375,47,44567
2376,198,44568
2377,173,44572
2378,81,44575
2379,70,44578
2380,57,44581
2381,124,44583
2382,193,44584
2383,81,44587
2384,41,44588
2385,98,44592
2386,137,44595
2387,12,44597
2388,3,44598
2389,137,44603
2390,173,44604
2391,94,44608
2392,0,44610
2393,34,44612
2394,35,44613
2395,106,44614
2396,94,44619
2397,13,44621
2398,73,44622
2399,208,44631
2400,134,57382
2401,135,57389
2402,70,57394
2403,84,57407
2404,1,57408
2405,76,57413
2406,7,57415
2407,17,57421
2408,84,57424
2409,104,57427
2410,193,57429
2411,130,57433
2412,75,57434
2413,124,57439
2414,47,57442
2415,23,57445
2416,34,57446
2417,19,57452
2418,103,57454
2419,36,57455
2420,209,57458
2421,51,57461
2422,99,57462
2423,73,57464
2424,124,57466
2425,138,57467
2426,167,57469
2427,108,57479
2428,21,57480
2429,121,57484
2430,118,57488
2431,128,57489
2432,131,49553
2433,124,49561
2434,97,49562
2435,117,49563
2436,63,49566
2437,220,49568
2438,92,49571
2439,11,49583
2440,61,49592
2441,204,49593
2442,217,49599
2443,19,49603
2444,207,49604
2445,6,49609
2446,97,49612
2447,60,49617
2448,26,49619
2449,56,49623
2450,131,49631
2451,20,49633
2452,179,49635
2453,83,49637
2454,41,49644
2455,21,49645
2456,73,49646
2457,70,49651
2458,34,49654
2459,60,49656
2460,127,49657
2461,34,49660
2462,92,49665
2463,109,49666
2464,17,43553
2465,124,43555
2466,31,43557
2467,125,43559
2468,134,43575
2469,54,43576
2470,179,43578
2471,61,43580
2472,158,43586
2473,158,43588
2474,58,43591
2475,64,43592
2476,213,43598
2477,26,43600
2478,52,43603
2479,185,43624
2480,64,43631
2481,75,43634
2482,76,43635
2483,116,43640
2484,63,43644
2485,61,43647
2486,204,43648
2487,19,43650
2488,80,43651
2489,57,43653
2490,12,43656
2491,121,43658
2492,70,43660
2493,70,43663
2494,214,43664
2495,6,43665
2496,64,3934
2497,91,3950
2498,78,3983
2499,179,4072
2500,14,4097
2501,212,4134
2502,49,4157
2503,207,4160
2504,91,4163
2505,1,4171
2506,49,4179
2507,106,4187
2508,88,4219
2509,209,4234
2510,116,4261
2511,47,4375
2512,61,4388
2513,128,4420
2514,23,4422
2515,116,4456
2516,155,4467
2517,55,4533
2518,86,4545
2519,23,4581
2520,76,4683
2521,220,4780
2522,101,4802
2523,59,4837
2524,0,5100
2525,41,5117
2526,55,5176
2527,180,5248
2528,45,3728
2529,13,3756
2530,116,3758
2531,91,3771
2532,41,3772
2533,217,3784
2534,61,3816
2535,180,3837
2536,158,3849
2537,35,3852
2538,81,3853
2539,68,3879
2540,87,3881
2541,68,3889
2542,116,3897
2543,211,3916
2544,98,3979
2545,108,3989
2546,63,3997
2547,60,4004
2548,83,4027
2549,118,4028
2550,12,4062
2551,110,4138
2552,212,4139
2553,204,4145
2554,113,4150
2555,8,4151
2556,38,4176
2557,0,4198
2558,87,4226
2559,106,4239
2560,179,44024
2561,70,44039
2562,131,44045
2563,119,44062
2564,80,44063
2565,3,44074
2566,88,44089
2567,108,44101
2568,82,44105
2569,115,44111
2570,75,44118
2571,76,44119
2572,167,44126
2573,5,44129
2574,128,44132
2575,134,44133
2576,138,44143
2577,72,44149
2578,7,44158
2579,68,44159
2580,55,44167
2581,75,44168
2582,111,44173
2583,104,44175
2584,42,44177
2585,208,44181
2586,130,44203
2587,21,44204
2588,207,44210
2589,185,44222
2590,128,44240
2591,30,44243
2592,91,2196
2593,40,2305
2594,21,2392
2595,68,2425
2596,139,2429
2597,77,2443
2598,58,2501
2599,87,2554
2600,220,2587
2601,0,2634
2602,87,2648
2603,204,2718
2604,45,2745
2605,173,2752
2606,208,2765
2607,83,2772
2608,19,2868
2609,53,2873
2610,213,2893
2611,70,2923
2612,32,2976
2613,132,2977
2614,7,2980
2615,19,3021
2616,198,3179
2617,8,3188
2618,96,3207
2619,35,3256
2620,120,3269
2621,112,3344
2622,87,3359
2623,19,3393
2624,92,12093
2625,130,12109
2626,98,12115
2627,76,12127
2628,45,12169
2629,82,12177
2630,54,12213
2631,96,12241
2632,173,12245
2633,198,12254
2634,92,12255
2635,214,12269
2636,41,12279
2637,86,12281
2638,193,12288
2639,52,12293
2640,131,12302
2641,107,12333
2642,59,12369
2643,65,12388
2644,70,12392
2645,84,12431
2646,130,12443
2647,118,12476
2648,78,12515
2649,34,12521
2650,204,12523
2651,52,12606
2652,47,12609
2653,135,12615
2654,198,12620
2655,64,12632
2656,109,46063
2657,70,46065
2658,43,46079
2659,204,46080
2660,143,46082
2661,21,46089
2662,130,46091
2663,99,46093
2664,77,46096
2665,17,46103
2666,127,46105
2667,116,46109
2668,204,46114
2669,29,46124
2670,193,46126
2671,84,46130
2672,111,46135
2673,51,46138
2674,62,46141
2675,52,46156
2676,58,46162
2677,213,46169
2678,130,46171
2679,2,46176
2680,3,46177
2681,32,46179
2682,34,46188
2683,76,46190
2684,37,46198
2685,76,46201
2686,135,46205
2687,181,46209
2688,75,2407
2689,43,2411
2690,86,2412
2691,66,2416
2692,37,2444
2693,127,2462
2694,217,2483
2695,14,2510
2696,6,2532
2697,163,2563
2698,61,2605
2699,8,2647
2700,84,2660
2701,124,2755
2702,61,2756
2703,204,2776
2704,207,2796
2705,141,2812
2706,114,2826
2707,3,2965
2708,73,2987
2709,52,2994
2710,99,3103
2711,140,3105
2712,10,3121
2713,99,3142
2714,3,3155
2715,61,3201
2716,193,3225
2717,129,3288
2718,220,3294
2719,63,3311
2720,64,58441
2721,70,58442
2722,7,58444
2723,34,58447
2724,220,58448
2725,27,58450
2726,141,58451
2727,97,58452
2728,54,58453
2729,40,58454
2730,134,58456
2731,51,58459
2732,52,58460
2733,111,58462
2734,193,58463
2735,31,58464
2736,204,58466
2737,55,58469
2738,220,58471
2739,107,58478
2740,30,58480
2741,125,58483
2742,139,58486
2743,173,58488
2744,111,58490
2745,138,58491
2746,91,58492
2747,35,58493
2748,23,58494
2749,101,58495
2750,123,58496
2751,138,58498
2752,127,15135
2753,204,15151
2754,31,15204
2755,106,15209
2756,114,15270
2757,213,15271
2758,123,15287
2759,70,15293
2760,141,15295
2761,35,15300
2762,42,15305
2763,198,15335
2764,7,15338
2765,138,15351
2766,47,15360
2767,179,15393
2768,204,15398
2769,4,15428
2770,84,15444
2771,139,15464
2772,92,15521
2773,17,15522
2774,124,15527
2775,19,15562
2776,42,15564
2777,40,15569
2778,111,15570
2779,46,15572
2780,109,15603
2781,217,15650
2782,216,15682
2783,13,15718
2784,119,618
2785,8,629
2786,8,662
2787,76,664
2788,134,707
2789,114,721
2790,36,755
2791,131,791
2792,6,867
2793,19,878
2794,23,884
2795,8,885
2796,43,894
2797,108,897
2798,99,907
2799,82,912
2800,209,928
2801,91,930
2802,83,937
2803,113,940
2804,12,966
2805,26,1058
2806,120,1115
2807,70,1136
2808,212,1171
2809,58,1179
2810,135,1288
2811,207,1336
2812,68,1355
2813,61,1407
2814,138,1418
2815,107,1421
2816,128,14799
2817,108,14812
2818,65,14828
2819,52,14842
2820,25,14858
2821,70,14860
2822,213,14866
2823,8,14881
2824,37,14908
2825,90,14931
2826,124,14958
2827,179,14965
2828,198,14976
2829,138,14980
2830,65,15009
2831,97,15014
2832,117,15017
2833,55,15032
2834,70,15034
2835,121,15039
2836,110,15050
2837,131,15062
2838,207,15071
2839,195,15080
2840,116,15092
2841,70,15103
2842,208,15141
2843,141,15142
2844,65,15169
2845,16,15179
2846,96,15216
2847,195,15220
2848,47,47218
2849,108,47219
2850,123,47220
2851,63,47222
2852,114,47223
2853,8,47224
2854,69,47228
2855,138,47230
2856,12,47232
2857,3,47236
2858,78,47239
2859,24,47249
2860,116,47252
2861,131,47253
2862,138,47260
2863,76,47261
2864,78,47263
2865,64,47264
2866,125,47266
2867,118,47268
2868,0,47271
2869,98,47276
2870,131,47292
2871,109,47295
2872,143,47298
2873,133,47299
2874,79,47303
2875,17,47307
2876,144,47309
2877,207,47311
2878,44,47312
2879,84,47316
2880,43,23813
2881,14,23849
2882,35,23852
2883,133,23866
2884,52,23876
2885,139,23880
2886,104,23885
2887,20,23935
2888,138,23936
2889,193,23947
2890,173,23958
2891,193,24014
2892,16,24016
2893,86,24036
2894,76,24062
2895,92,24067
2896,208,24082
2897,64,24103
2898,112,24153
2899,73,24159
2900,6,24165
2901,60,24166
2902,59,24179
2903,91,24192
2904,195,24196
2905,82,24271
2906,61,24289
2907,77,24324
2908,108,24363
2909,34,24396
2910,49,24421
2911,127,24426
2912,41,50347
2913,214,50350
2914,34,50354
2915,134,50356
2916,108,50357
2917,173,50370
2918,179,50372
2919,138,50373
2920,107,50375
2921,128,50378
2922,220,50379
2923,8,50383
2924,127,50390
2925,125,50395
2926,163,50400
2927,46,50407
2928,88,50408
2929,17,50419
2930,139,50421
2931,67,50422
2932,60,50431
2933,19,50436
2934,61,50438
2935,73,50440
2936,217,50442
2937,173,50444
2938,123,50446
2939,217,50447
2940,82,50448
2941,65,50451
2942,137,50453
2943,90,50454
2944,62,40071
2945,17,40073
2946,173,40091
2947,58,40110
2948,140,40129
2949,185,40151
2950,0,40152
2951,37,40160
2952,12,40162
2953,35,40163
2954,92,40167
2955,78,40172
2956,21,40184
2957,21,40188
2958,127,40201
2959,14,40202
2960,67,40207
2961,131,40210
2962,26,40211
2963,216,40213
2964,3,40220
2965,213,40224
2966,49,40226
2967,35,40228
2968,97,40233
2969,216,40262
2970,70,40265
2971,179,40268
2972,27,40279
2973,41,40281
2974,217,40282
2975,125,40285
2976,207,25675
2977,24,25683
2978,117,25696
2979,110,25698
2980,77,25699
2981,111,25705
2982,123,25706
2983,32,25710
2984,31,25713
2985,34,25715
2986,81,25720
2987,73,25721
2988,35,25727
2989,135,25730
2990,94,25735
2991,107,25736
2992,78,25737
2993,116,25740
2994,81,25743
2995,212,25750
2996,73,25753
2997,133,25763
2998,7,25771
2999,4,25774
3000,98,25783
3001,52,25789
3002,76,25792
3003,204,25793
3004,3,25805
3005,96,25810
3006,51,25817
3007,78,25825
3008,212,17326
3009,60,17338
3010,185,17361
3011,133,17362
3012,61,17395
3013,139,17405
3014,12,17409
3015,96,17416
3016,34,17420
3017,117,17434
3018,120,17446
3019,131,17453
3020,28,17465
3021,95,17475
3022,0,17501
3023,8,17511
3024,4,17525
3025,41,17527
3026,198,17533
3027,193,17571
3028,92,17581
3029,13,17584
3030,64,17611
3031,121,17617
3032,12,17622
3033,94,17623
3034,35,17633
3035,41,17635
3036,87,17663
3037,64,17701
3038,111,17712
3039,37,17713
3040,4,26386
3041,113,26389
3042,70,26398
3043,198,26404
3044,108,26406
3045,23,26425
3046,26,26431
3047,195,26438
3048,99,26443
3049,207,26451
3050,137,26456
3051,96,26462
3052,70,26467
3053,211,26476
3054,207,26483
3055,208,26484
3056,77,26486
3057,7,26500
3058,163,26512
3059,106,26514
3060,27,26517
3061,69,26522
3062,16,26523
3063,4,26524
3064,71,26536
3065,91,26550
3066,195,26555
3067,8,26563
3068,140,26568
3069,12,26570
3070,99,26571
3071,135,26598
3072,79,45269
3073,220,45270
3074,81,45281
3075,208,45282
3076,62,45287
3077,208,45290
3078,3,45294
3079,116,45296
3080,20,45297
3081,59,45302
3082,35,45303
3083,19,45306
3084,103,45308
3085,114,45309
3086,129,45310
3087,84,45312
3088,116,45319
3089,74,45320
3090,107,45322
3091,134,45323
3092,55,45326
3093,27,45327
3094,88,45329
3095,35,45333
3096,198,45336
3097,208,45338
3098,73,45344
3099,13,45345
3100,71,45346
3101,220,45347
3102,216,45349
3103,71,45352
3104,139,11721
3105,5,11760
3106,107,11766
3107,73,11793
3108,195,11901
3109,123,11945
3110,112,11966
3111,41,11985
3112,34,11989
3113,77,11997
3114,132,12004
3115,23,12023
3116,141,12024
3117,16,12066
3118,49,12102
3119,3,12104
3120,137,12118
3121,6,12135
3122,64,12160
3123,88,12242
3124,114,12251
3125,109,12264
3126,61,12265
3127,217,12276
3128,214,12280
3129,198,12305
3130,134,12317
3131,163,12324
3132,35,12394
3133,135,12403
3134,91,12412
3135,111,12422
3136,8,11768
3137,111,11776
3138,35,11785
3139,83,11787
3140,212,11813
3141,211,11845
3142,41,11874
3143,92,11887
3144,11,11889
3145,34,11899
3146,216,11900
3147,208,11905
3148,0,11909
3149,8,11917
3150,220,11921
3151,77,11926
3152,38,11927
3153,86,11935
3154,45,11938
3155,132,11975
3156,19,11981
3157,173,12000
3158,70,12007
3159,123,12040
3160,124,12044
3161,59,12047
3162,94,12053
3163,73,12060
3164,204,12071
3165,111,12084
3166,88,12091
3167,111,12126
3168,195,56481
3169,91,56483
3170,66,56484
3171,104,56486
3172,130,56487
3173,11,56488
3174,129,56491
3175,216,56495
3176,106,56504
3177,115,56505
3178,204,56509
3179,158,56512
3180,84,56517
3181,101,56523
3182,53,56525
3183,8,56527
3184,41,56529
3185,30,56534
3186,70,56538
3187,38,56539
3188,214,56541
3189,123,56542
3190,93,56552
3191,204,56553
3192,11,56556
3193,134,56558
3194,96,56562
3195,125,56563
3196,99,56568
3197,94,56569
3198,90,56571
3199,103,56573
3200,72,45913
3201,141,45918
3202,47,45922
3203,55,45923
3204,54,45924
3205,134,45930
3206,98,45935
3207,64,45936
3208,132,45943
3209,212,45947
3210,14,45951
3211,155,45953
3212,181,45968
3213,96,45969
3214,211,45976
3215,101,45982
3216,35,45983
3217,91,45990
3218,97,45994
3219,58,45998
3220,49,45999
3221,120,46002
3222,43,46003
3223,35,46008
3224,128,46016
3225,52,46017
3226,49,46018
3227,127,46019
3228,107,46023
3229,0,46026
3230,96,46032
3231,217,46033
3232,13,4250
3233,135,4541
3234,4,4619
3235,131,4671
3236,16,4941
3237,158,5304
3238,117,5633
3239,99,5667
3240,129,5840
3241,111,6551
3242,28,6688
3243,163,6911
3244,103,6967
3245,61,10051
3246,6,10968
3247,94,11016
3248,87,12694
3249,106,13444
3250,35,17347
3251,0,30
3252,86,57
3253,57,126
3254,141,158
3255,57,162
3256,26,187
3257,123,211
3258,220,309
3259,13,580
3260,107,603
3261,204,726
3262,43,970
3263,78,979
3264,19,12737
3265,73,12745
3266,179,12755
3267,127,12771
3268,167,12772
3269,193,12773
3270,7,12807
3271,68,12809
3272,208,12810
3273,135,12834
3274,135,12845
3275,101,12850
3276,66,12879
3277,45,12886
3278,81,12888
3279,78,12913
3280,20,12928
3281,11,12932
3282,84,12935
3283,58,12942
3284,83,12949
3285,117,12959
3286,76,12960
3287,134,12962
3288,41,12969
3289,134,12984
3290,52,13006
3291,124,13007
3292,45,13014
3293,61,13015
3294,167,13026
3295,9,13034
3296,23,14351
3297,20,14355
3298,12,14371
3299,42,14376
3300,34,14399
3301,43,14404
3302,108,14407
3303,132,14420
3304,123,14446
3305,121,14448
3306,120,14558
3307,133,14599
3308,116,14601
3309,54,14629
3310,34,14676
3311,17,14677
3312,62,14687
3313,173,14700
3314,13,14705
3315,195,14721
3316,204,14728
3317,31,14762
3318,9,14765
3319,41,14778
3320,55,14781
3321,13,14811
3322,118,14829
3323,101,14840
3324,94,14855
3325,51,14865
3326,9,14867
3327,212,14870
3328,207,26310
3329,26,26312
3330,108,26316
3331,90,26318
3332,58,26322
3333,40,26323
3334,124,26333
3335,129,26334
3336,71,26340
3337,127,26342
3338,211,26345
3339,61,26351
3340,38,26353
3341,94,26355
3342,32,26356
3343,130,26364
3344,31,26373
3345,53,26376
3346,12,26388
3347,4,26390
3348,127,26391
3349,28,26392
3350,70,26394
3351,131,26395
3352,202,26397
3353,45,26399
3354,61,26401
3355,204,26405
3356,73,26411
3357,212,26413
3358,135,26420
3359,39,26421
3360,207,14414
3361,76,14418
3362,6,14478
3363,64,14495
3364,101,14530
3365,134,14536
3366,116,14550
3367,57,14564
3368,180,14573
3369,207,14578
3370,131,14581
3371,139,14594
3372,88,14615
3373,101,14616
3374,125,14619
3375,123,14632
3376,92,14639
3377,79,14644
3378,96,14646
3379,31,14650
3380,118,14652
3381,63,14656
3382,126,14685
3383,58,14699
3384,163,14701
3385,43,14706
3386,193,14709
3387,35,14711
3388,88,14718
3389,71,14722
3390,63,14731
3391,34,14732
3392,43,42450
3393,91,42469
3394,4,42484
3395,108,42503
3396,110,42507
3397,198,42518
3398,214,42529
3399,33,42531
3400,78,42543
3401,120,42548
3402,100,42553
3403,33,42554
3404,207,42555
3405,96,42569
3406,57,42577
3407,73,42582
3408,27,42586
3409,65,42591
3410,207,42595
3411,89,42620
3412,213,42630
3413,16,42631
3414,19,42640
3415,115,42644
3416,53,42648
3417,100,42652
3418,52,42670
3419,137,42692
3420,181,42693
3421,58,42700
3422,3,42716
3423,167,42718
3424,35,7645
3425,123,7648
3426,220,7653
3427,14,7666
3428,123,7674
3429,204,7694
3430,91,7699
3431,133,7700
3432,9,7710
3433,208,7726
3434,6,7730
3435,49,7737
3436,35,7738
3437,20,7746
3438,99,7748
3439,2,7767
3440,180,7771
3441,217,7775
3442,118,7794
3443,61,7816
3444,52,7817
3445,40,7821
3446,0,7824
3447,73,7836
3448,69,7849
3449,24,7857
3450,216,7858
3451,0,7889
3452,79,7900
3453,180,7901
3454,94,7915
3455,73,7920
3456,128,32654
3457,132,32656
3458,125,32658
3459,207,32668
3460,129,32672
3461,68,32677
3462,181,32678
3463,209,32684
3464,57,32691
3465,198,32693
3466,28,32694
3467,98,32706
3468,43,32717
3469,207,32724
3470,7,32732
3471,33,32741
3472,204,32761
3473,82,32767
3474,108,32772
3475,119,32778
3476,193,32780
3477,5,32794
3478,195,32808
3479,94,32814
3480,104,32820
3481,16,32824
3482,65,32832
3483,208,32833
3484,52,32837
3485,141,32855
3486,211,32856
3487,129,32868
3488,9,8008
3489,58,8062
3490,45,8091
3491,3,8095
3492,108,8107
3493,23,8183
3494,28,8198
3495,208,8220
3496,9,8271
3497,173,8282
3498,72,8363
3499,61,8370
3500,59,8377
3501,8,8392
3502,155,8457
3503,135,8564
3504,193,8576
3505,82,8664
3506,209,8761
3507,173,8832
3508,112,8899
3509,143,8934
3510,16,8977
3511,21,8980
3512,118,8994
3513,35,9017
3514,20,9041
3515,207,9063
3516,91,9156
3517,60,9312
3518,47,9337
3519,42,9349
3520,42,42402
3521,80,42407
3522,41,42409
3523,116,42418
3524,87,42421
3525,125,42427
3526,81,42436
3527,118,42447
3528,52,42459
3529,87,42460
3530,179,42478
3531,8,42479
3532,78,42480
3533,41,42481
3534,120,42483
3535,124,42486
3536,87,42487
3537,71,42494
3538,57,42509
3539,69,42513
3540,115,42519
3541,78,42524
3542,130,42526
3543,216,42556
3544,83,42559
3545,204,42563
3546,134,42566
3547,37,42571
3548,87,42574
3549,19,42590
3550,70,42592
3551,123,42601
3552,123,27781
3553,116,27786
3554,220,27804
3555,79,27815
3556,13,27824
3557,50,27831
3558,216,27844
3559,141,27850
3560,19,27864
3561,113,27866
3562,38,27870
3563,100,27872
3564,17,27874
3565,132,27876
3566,139,27882
3567,52,27891
3568,131,27898
3569,68,27900
3570,77,27905
3571,213,27907
3572,123,27910
3573,129,27915
3574,71,27919
3575,54,27924
3576,121,27928
3577,65,27930
3578,12,27942
3579,34,27948
3580,54,27952
3581,50,27958
3582,31,27965
3583,217,27972
3584,59,47761
3585,67,47762
3586,106,47764
3587,32,47765
3588,91,47773
3589,19,47777
3590,76,47781
3591,120,47789
3592,207,47791
3593,72,47795
3594,27,47798
3595,139,47802
3596,73,47807
3597,115,47814
3598,34,47815
3599,99,47816
3600,220,47824
3601,180,47825
3602,86,47826
3603,79,47827
3604,179,47828
3605,77,47831
3606,109,47832
3607,128,47833
3608,207,47835
3609,133,47837
3610,84,47839
3611,90,47845
3612,91,47846
3613,152,47848
3614,2,47850
3615,118,47860
3616,45,13892
3617,220,13927
3618,16,13928
3619,104,13935
3620,16,13952
3621,124,13966
3622,76,13968
3623,70,14001
3624,20,14068
3625,65,14073
3626,42,14092
3627,96,14117
3628,94,14120
3629,120,14124
3630,4,14132
3631,84,14148
3632,11,14162
3633,34,14164
3634,193,14166
3635,100,14179
3636,173,14186
3637,133,14212
3638,77,14215
3639,77,14223
3640,70,14266
3641,139,14272
3642,62,14331
3643,76,14339
3644,56,14366
3645,107,14392
3646,138,14403
3647,101,14413
3648,43,39443
3649,43,39444
3650,104,39447
3651,33,39458
3652,62,39459
3653,12,39460
3654,19,39466
3655,63,39467
3656,139,39470
3657,73,39472
3658,8,39484
3659,53,39491
3660,114,39500
3661,106,39505
3662,54,39512
3663,65,39536
3664,139,39538
3665,8,39541
3666,54,39542
3667,0,39543
3668,73,39556
3669,62,39558
3670,78,39564
3671,73,39582
3672,3,39588
3673,58,39591
3674,124,39595
3675,16,39605
3676,52,39609
3677,86,39612
3678,158,39614
3679,91,39617
3680,4,24542
3681,128,24553
3682,137,24586
3683,134,24592
3684,204,24602
3685,76,24607
3686,123,24609
3687,75,24614
3688,198,24627
3689,52,24628
3690,131,24631
3691,66,24635
3692,193,24636
3693,17,24645
3694,123,24646
3695,124,24648
3696,167,24660
3697,81,24673
3698,107,24674
3699,21,24677
3700,127,24685
3701,34,24687
3702,193,24693
3703,2,24696
3704,141,24697
3705,31,24699
3706,68,24700
3707,97,24702
3708,141,24712
3709,127,24714
3710,3,24715
3711,213,24716
3712,8,55253
3713,193,55255
3714,99,55258
3715,27,55260
3716,209,55263
3717,87,55264
3718,135,55266
3719,96,55267
3720,91,55276
3721,14,55277
3722,91,55278
3723,34,55279
3724,96,55280
3725,91,55281
3726,84,55282
3727,13,55289
3728,208,55293
3729,40,55296
3730,94,55299
3731,41,55302
3732,96,55305
3733,207,55310
3734,87,55311
3735,89,55312
3736,34,55313
3737,66,55314
3738,204,55316
3739,78,55318
3740,46,55319
3741,10,55322
3742,77,55325
3743,73,55330
3744,24,29856
3745,70,29861
3746,193,29862
3747,73,29863
3748,0,29864
3749,76,29876
3750,107,29879
3751,34,29891
3752,120,29892
3753,55,29893
3754,141,29904
3755,3,29912
3756,90,29929
3757,139,29930
3758,91,29944
3759,32,29973
3760,119,29978
3761,163,29979
3762,127,29984
3763,107,29993
3764,28,30019
3765,2,30028
3766,28,30035
3767,60,30040
3768,81,30041
3769,83,30042
3770,117,30047
3771,75,30065
3772,158,30075
3773,136,30082
3774,139,30090
3775,7,30096
3776,217,50080
3777,1,50082
3778,220,50085
3779,131,50086
3780,198,50092
3781,6,50095
3782,137,50097
3783,70,50098
3784,103,50100
3785,217,50107
3786,107,50108
3787,204,50109
3788,61,50110
3789,34,50111
3790,67,50119
3791,47,50122
3792,198,50124
3793,180,50126
3794,179,50127
3795,87,50129
3796,10,50131
3797,24,50132
3798,94,50134
3799,68,50142
3800,204,50143
3801,94,50145
3802,18,50147
3803,179,50148
3804,0,50151
3805,209,50152
3806,28,50155
3807,82,50159
3808,112,24873
3809,94,24876
3810,125,24880
3811,35,24904
3812,44,24940
3813,138,24951
3814,94,24955
3815,42,24978
3816,20,24980
3817,207,24981
3818,173,24982
3819,88,24988
3820,104,25013
3821,139,25016
3822,118,25074
3823,207,25097
3824,35,25119
3825,193,25147
3826,41,25158
3827,115,25160
3828,70,25172
3829,19,25224
3830,209,25239
3831,143,25353
3832,52,25360
3833,64,25391
3834,70,25392
3835,99,25422
3836,24,25428
3837,0,25459
3838,216,25471
3839,111,25495
3840,130,33315
3841,60,33409
3842,173,33422
3843,100,33503
3844,121,33504
3845,179,33572
3846,13,33648
3847,100,33794
3848,140,33884
3849,141,33974
3850,34,34035
3851,110,34089
3852,52,34161
3853,35,34203
3854,115,34241
3855,82,34266
3856,62,34309
3857,204,34343
3858,27,34372
3859,20,34383
3860,204,34580
3861,208,34585
3862,107,34617
3863,133,34692
3864,68,34722
3865,19,34833
3866,70,34861
3867,106,34897
3868,91,34905
3869,134,34997
3870,124,35073
3871,97,35127
3872,181,47410
3873,133,47412
3874,141,47413
3875,16,47415
3876,73,47421
3877,11,47422
3878,16,47428
3879,65,47440
3880,92,47441
3881,214,47442
3882,119,47446
3883,7,47450
3884,133,47451
3885,150,47460
3886,216,47466
3887,55,47467
3888,64,47475
3889,167,47477
3890,35,47478
3891,12,47480
3892,124,47481
3893,87,47482
3894,78,47491
3895,111,47499
3896,114,47501
3897,204,47503
3898,134,47504
3899,68,47505
3900,49,47510
3901,193,47519
3902,220,47520
3903,103,47526
3904,60,51578
3905,81,51579
3906,14,51580
3907,16,51582
3908,81,51583
3909,8,51585
3910,119,51590
3911,111,51592
3912,98,51593
3913,11,51595
3914,204,51601
3915,88,51602
3916,68,51607
3917,43,51608
3918,131,51611
3919,73,51613
3920,132,51614
3921,87,51617
3922,50,51618
3923,134,51622
3924,41,51641
3925,173,51642
3926,42,51644
3927,94,51647
3928,42,51648
3929,208,51656
3930,93,51661
3931,127,51664
3932,32,51669
3933,126,51674
3934,83,51679
3935,35,51682
3936,64,16851
3937,73,16867
3938,124,16875
3939,181,16879
3940,13,16881
3941,62,16898
3942,64,16918
3943,40,16919
3944,87,16931
3945,84,16942
3946,207,16948
3947,101,16949
3948,73,16955
3949,109,16959
3950,83,16975
3951,43,17014
3952,179,17034
3953,139,17043
3954,23,17061
3955,140,17072
3956,134,17073
3957,4,17087
3958,179,17090
3959,78,17129
3960,137,17155
3961,214,17164
3962,51,17168
3963,124,17172
3964,106,17174
3965,115,17180
3966,4,17185
3967,61,17195
3968,49,42293
3969,141,42304
3970,76,42305
3971,40,42307
3972,34,42312
3973,61,42317
3974,65,42321
3975,41,42322
3976,31,42324
3977,70,42325
3978,217,42333
3979,97,42347
3980,217,42348
3981,132,42353
3982,16,42354
3983,124,42356
3984,133,42358
3985,137,42359
3986,124,42363
3987,84,42367
3988,8,42376
3989,35,42378
3990,62,42380
3991,84,42382
3992,19,42383
3993,140,42384
3994,98,42385
3995,52,42387
3996,20,42392
3997,64,42394
3998,84,42419
3999,78,42420
4000,79,35606
4001,97,35607
4002,87,35610
4003,76,35618
4004,127,35619
4005,195,35623
4006,43,35631
4007,73,35635
4008,8,35637
4009,106,35639
4010,185,35642
4011,27,35645
4012,179,35649
4013,54,35650
4014,35,35651
4015,52,35657
4016,83,35669
4017,8,35674
4018,52,35677
4019,17,35695
4020,217,35698
4021,135,35701
4022,100,35702
4023,30,35705
4024,70,35713
4025,123,35728
4026,78,35739
4027,34,35761
4028,111,35764
4029,86,35766
4030,35,35770
4031,35,35781
4032,204,21500
4033,125,21505
4034,49,21534
4035,76,21537
4036,70,21542
4037,66,21551
4038,82,21552
4039,123,21563
4040,195,21569
4041,70,21576
4042,217,21579
4043,78,21589
4044,207,21592
4045,180,21602
4046,117,21616
4047,209,21631
4048,64,21641
4049,112,21642
4050,115,21654
4051,64,21658
4052,129,21661
4053,217,21669
4054,21,21672
4055,58,21677
4056,40,21692
4057,51,21694
4058,119,21696
4059,49,21698
4060,5,21701
4061,16,21703
4062,193,21706
4063,65,21708
4064,204,12644
4065,58,12661
4066,209,12681
4067,204,12683
4068,64,12685
4069,126,12727
4070,106,12736
4071,77,12742
4072,31,12759
4073,4,12763
4074,12,12779
4075,42,12787
4076,76,12788
4077,139,12792
4078,35,12803
4079,116,12811
4080,66,12825
4081,64,12849
4082,127,12864
4083,52,12871
4084,30,12884
4085,136,12890
4086,140,12895
4087,69,12898
4088,179,12904
4089,193,12929
4090,49,12954
4091,136,12958
4092,8,12968
4093,40,12977
4094,87,13013
4095,185,13021
4096,19,51954
4097,108,51958
4098,66,51959
4099,106,51960
4100,131,51966
4101,111,51974
4102,12,51978
4103,49,51979
4104,134,51986
4105,117,51987
4106,65,51990
4107,43,51996
4108,91,52004
4109,33,52005
4110,55,52007
4111,217,52011
4112,23,52014
4113,111,52016
4114,44,52019
4115,216,52020
4116,185,52021
4117,180,52023
4118,32,52025
4119,71,52029
4120,195,52032
4121,129,52034
4122,193,52038
4123,128,52041
4124,75,52043
4125,33,52045
4126,212,52046
4127,138,52049
4128,48,19384
4129,181,19386
4130,193,19395
4131,78,19409
4132,71,19410
4133,135,19416
4134,125,19418
4135,77,19446
4136,207,19450
4137,8,19452
4138,115,19476
4139,59,19513
4140,28,19520
4141,220,19521
4142,134,19528
4143,179,19539
4144,62,19562
4145,135,19567
4146,68,19580
4147,21,19586
4148,19,19593
4149,88,19595
4150,70,19603
4151,214,19608
4152,72,19610
4153,131,19611
4154,93,19624
4155,41,19636
4156,43,19642
4157,40,19643
4158,106,19648
4159,123,19684
4160,216,53584
4161,69,53585
4162,140,53586
4163,125,53587
4164,7,53588
4165,6,53591
4166,211,53594
4167,92,53595
4168,20,53599
4169,208,53600
4170,209,53603
4171,41,53604
4172,97,53609
4173,115,53610
4174,83,53613
4175,75,53619
4176,193,53620
4177,124,53622
4178,44,53624
4179,108,53625
4180,139,53628
4181,20,53629
4182,38,53632
4183,66,53635
4184,209,53636
4185,51,53638
4186,31,53639
4187,213,53641
4188,82,53645
4189,73,53647
4190,71,53650
4191,123,53651
4192,69,4379
4193,125,4381
4194,6,4391
4195,198,4395
4196,87,4398
4197,70,4430
4198,207,4449
4199,19,4464
4200,180,4470
4201,134,4471
4202,63,4479
4203,158,4525
4204,212,4532
4205,158,4546
4206,46,4570
4207,19,4576
4208,4,4589
4209,195,4599
4210,208,4605
4211,81,4626
4212,113,4629
4213,47,4632
4214,52,4636
4215,91,4638
4216,132,4640
4217,100,4645
4218,78,4660
4219,72,4689
4220,127,4691
4221,3,4693
4222,36,4694
4223,135,4696
4224,220,7499
4225,35,7503
4226,135,7511
4227,67,7512
4228,70,7516
4229,99,7521
4230,100,7525
4231,9,7532
4232,64,7572
4233,92,7590
4234,140,7601
4235,207,7608
4236,3,7612
4237,131,7629
4238,47,7655
4239,59,7676
4240,140,7693
4241,135,7723
4242,220,7724
4243,58,7732
4244,59,7733
4245,87,7741
4246,124,7745
4247,70,7752
4248,49,7768
4249,217,7773
4250,98,7774
4251,81,7786
4252,8,7797
4253,52,7807
4254,134,7825
4255,73,7830
4256,61,13285
4257,8,13293
4258,29,13311
4259,220,13342
4260,51,13366
4261,16,13368
4262,79,13385
4263,40,13430
4264,208,13486
4265,53,13509
4266,103,13527
4267,29,13543
4268,3,13618
4269,52,13624
4270,44,13664
4271,137,13675
4272,117,13688
4273,12,13762
4274,118,13808
4275,71,13821
4276,24,13834
4277,34,13846
4278,114,13868
4279,109,13905
4280,83,13926
4281,46,13982
4282,20,14016
4283,78,14043
4284,128,14050
4285,173,14067
4286,92,14072
4287,220,14115
4288,92,26435
4289,220,26439
4290,140,26441
4291,128,26448
4292,54,26449
4293,204,26452
4294,60,26453
4295,99,26454
4296,77,26465
4297,60,26468
4298,220,26473
4299,213,26498
4300,39,26516
4301,124,26518
4302,87,26525
4303,35,26529
4304,17,26541
4305,130,26543
4306,220,26544
4307,131,26548
4308,128,26553
4309,119,26564
4310,28,26565
4311,96,26574
4312,220,26576
4313,198,26577
4314,131,26580
4315,132,26583
4316,42,26592
4317,111,26596
4318,101,26601
4319,137,26608
4320,88,46245
4321,40,46246
4322,42,46248
4323,100,46250
4324,96,46251
4325,17,46252
4326,217,46254
4327,55,46263
4328,59,46264
4329,209,46271
4330,68,46276
4331,87,46277
4332,92,46281
4333,116,46282
4334,9,46286
4335,109,46287
4336,57,46302
4337,8,46307
4338,49,46312
4339,97,46315
4340,88,46316
4341,106,46320
4342,214,46321
4343,64,46323
4344,13,46327
4345,44,46328
4346,47,46330
4347,123,46331
4348,121,46338
4349,98,46341
4350,209,46342
4351,52,46343
4352,179,42721
4353,87,42728
4354,65,42748
4355,217,42754
4356,68,42756
4357,45,42767
4358,34,42770
4359,58,42784
4360,12,42799
4361,135,42808
4362,202,42827
4363,101,42835
4364,118,42836
4365,19,42852
4366,37,42861
4367,113,42905
4368,198,42906
4369,207,42911
4370,45,42919
4371,103,42926
4372,82,42928
4373,82,42941
4374,32,42943
4375,220,42972
4376,125,43001
4377,6,43008
4378,127,43023
4379,217,43048
4380,97,43075
4381,125,43092
4382,61,43095
4383,3,43130
4384,65,59349
4385,93,59350
4386,97,59351
4387,208,59352
4388,163,59353
4389,135,59354
4390,17,59355
4391,32,59356
4392,97,59357
4393,216,59358
4394,4,59360
4395,64,59361
4396,173,59362
4397,198,59363
4398,83,59366
4399,217,59374
4400,80,59375
4401,214,59376
4402,35,59379
4403,75,59380
4404,20,59381
4405,216,59382
4406,68,59383
4407,140,59384
4408,27,59385
4409,78,59387
4410,35,59389
4411,16,59392
4412,204,59393
4413,52,59394
4414,217,59395
4415,7,59396
4416,65,59302
4417,195,59303
4418,17,59305
4419,131,59307
4420,4,59310
4421,65,59314
4422,127,59315
4423,63,59316
4424,58,59318
4425,90,59322
4426,87,59323
4427,24,59324
4428,19,59325
4429,16,59326
4430,143,59327
4431,81,59328
4432,81,59329
4433,73,59330
4434,0,59331
4435,19,59335
4436,34,59336
4437,77,59337
4438,28,59338
4439,99,59339
4440,44,59340
4441,133,59342
4442,8,59343
4443,212,59344
4444,78,59345
4445,220,59346
4446,91,59347
4447,130,59348
4448,78,54454
4449,35,54461
4450,179,54469
4451,123,54470
4452,120,54472
4453,193,54473
4454,19,54474
4455,47,54476
4456,91,54480
4457,14,54481
4458,124,54488
4459,158,54493
4460,128,54496
4461,40,54497
4462,58,54500
4463,68,54501
4464,78,54504
4465,58,54509
4466,116,54510
4467,76,54515
4468,91,54516
4469,202,54520
4470,78,54523
4471,119,54531
4472,195,54533
4473,124,54537
4474,81,54541
4475,49,54543
4476,0,54546
4477,96,54547
4478,3,54548
4479,116,54549
4480,141,16492
4481,68,16503
4482,181,16511
4483,217,16520
4484,137,16527
4485,124,16531
4486,107,16547
4487,207,16555
4488,19,16567
4489,84,16573
4490,138,16578
4491,198,16579
4492,35,16580
4493,128,16596
4494,21,16601
4495,73,16628
4496,11,16651
4497,90,16652
4498,35,16661
4499,139,16686
4500,70,16692
4501,70,16709
4502,32,16712
4503,82,16743
4504,19,16764
4505,52,16765
4506,217,16767
4507,84,16781
4508,82,16792
4509,95,16803
4510,12,16808
4511,79,16818
4512,135,42976
4513,141,42981
4514,89,42989
4515,53,42991
4516,116,42992
4517,220,42997
4518,57,43002
4519,100,43009
4520,116,43026
4521,81,43027
4522,45,43031
4523,82,43032
4524,125,43033
4525,82,43036
4526,43,43049
4527,120,43053
4528,16,43057
4529,58,43060
4530,193,43061
4531,40,43064
4532,121,43065
4533,173,43072
4534,133,43080
4535,209,43084
4536,99,43086
4537,131,43096
4538,35,43099
4539,51,43102
4540,99,43113
4541,62,43139
4542,73,43140
4543,41,43143
4544,72,56393
4545,193,56397
4546,71,56398
4547,63,56399
4548,53,56401
4549,202,56403
4550,84,56405
4551,119,56406
4552,207,56407
4553,87,56408
4554,143,56409
4555,16,56411
4556,87,56414
4557,96,56415
4558,75,56417
4559,85,56419
4560,19,56420
4561,0,56421
4562,217,56422
4563,92,56424
4564,70,56425
4565,32,56426
4566,131,56430
4567,208,56433
4568,125,56434
4569,180,56435
4570,34,56436
4571,17,56437
4572,76,56438
4573,84,56439
4574,125,56442
4575,6,56445
4576,124,8733
4577,204,8745
4578,12,8753
4579,173,8755
4580,0,8774
4581,71,8784
4582,91,8787
4583,61,8793
4584,40,8796
4585,9,8806
4586,13,8816
4587,83,8827
4588,207,8861
4589,98,8862
4590,44,8863
4591,4,8864
4592,216,8870
4593,131,8896
4594,43,8919
4595,104,8931
4596,2,8990
4597,173,9004
4598,84,9010
4599,115,9033
4600,3,9040
4601,55,9076
4602,91,9086
4603,207,9147
4604,2,9158
4605,61,9163
4606,100,9180
4607,34,9308
4608,28,48887
4609,69,48900
4610,52,48903
4611,70,48905
4612,167,48909
4613,54,48910
4614,81,48915
4615,75,48917
4616,16,48918
4617,84,48926
4618,42,48932
4619,94,48933
4620,204,48936
4621,220,48939
4622,20,48940
4623,78,48941
4624,19,48942
4625,87,48945
4626,58,48946
4627,220,48947
4628,19,48948
4629,181,48950
4630,77,48951
4631,70,48960
4632,9,48962
4633,34,48964
4634,140,48965
4635,137,48967
4636,70,48969
4637,76,48978
4638,133,48979
4639,97,48980
4640,20,40734
4641,55,40736
4642,65,40737
4643,213,40740
4644,68,40747
4645,73,40750
4646,119,40751
4647,23,40754
4648,117,40756
4649,41,40757
4650,42,40762
4651,106,40763
4652,198,40774
4653,112,40784
4654,75,40791
4655,57,40794
4656,42,40804
4657,19,40808
4658,13,40810
4659,130,40812
4660,123,40822
4661,209,40824
4662,123,40825
4663,31,40830
4664,65,40831
4665,35,40833
4666,99,40834
4667,7,40843
4668,68,40845
4669,93,40850
4670,104,40852
4671,41,40854
4672,209,39153
4673,81,39160
4674,96,39168
4675,16,39171
4676,91,39172
4677,78,39180
4678,111,39192
4679,34,39205
4680,19,39207
4681,32,39208
4682,109,39210
4683,133,39213
4684,131,39214
4685,66,39222
4686,49,39231
4687,118,39240
4688,3,39246
4689,113,39248
4690,179,39255
4691,25,39256
4692,127,39264
4693,71,39266
4694,107,39270
4695,118,39275
4696,216,39278
4697,34,39281
4698,124,39282
4699,34,39283
4700,158,39284
4701,45,39285
4702,61,39291
4703,129,39294
4704,52,36534
4705,98,36539
4706,114,36540
4707,16,36544
4708,208,36553
4709,204,36559
4710,193,36574
4711,137,36576
4712,71,36595
4713,181,36596
4714,121,36599
4715,7,36603
4716,115,36605
4717,87,36606
4718,214,36613
4719,100,36614
4720,0,36625
4721,125,36637
4722,2,36639
4723,77,36649
4724,20,36676
4725,209,36681
4726,36,36689
4727,198,36696
4728,45,36697
4729,69,36700
4730,27,36703
4731,35,36704
4732,207,36705
4733,84,36708
4734,124,36711
4735,41,36719
4736,118,13780
4737,211,13818
4738,68,13822
4739,78,13823
4740,209,13845
4741,73,13855
4742,132,13858
4743,43,13871
4744,93,13881
4745,193,13903
4746,35,13912
4747,108,13949
4748,77,13981
4749,13,13987
4750,37,14021
4751,57,14036
4752,18,14083
4753,94,14094
4754,78,14168
4755,9,14208
4756,71,14237
4757,9,14242
4758,53,14270
4759,88,14293
4760,216,14302
4761,179,14322
4762,131,14349
4763,72,14353
4764,68,14365
4765,3,14389
4766,24,14410
4767,13,14415
4768,72,27779
4769,108,27794
4770,8,27807
4771,107,27825
4772,209,27836
4773,138,27837
4774,62,27840
4775,114,27842
4776,107,27853
4777,21,27886
4778,23,27892
4779,204,27916
4780,11,27923
4781,7,27940
4782,62,27959
4783,213,27976
4784,207,28000
4785,220,28012
4786,46,28017
4787,9,28020
4788,42,28025
4789,12,28032
4790,35,28033
4791,104,28058
4792,127,28066
4793,7,28075
4794,104,28077
4795,42,28080
4796,34,28089
4797,17,28095
4798,41,28107
4799,115,28113
4800,12,47631
4801,63,47632
4802,208,47633
4803,103,47634
4804,27,47637
4805,58,47643
4806,213,47647
4807,35,47650
4808,49,47661
4809,3,47662
4810,93,47666
4811,12,47667
4812,51,47669
4813,58,47671
4814,123,47677
4815,173,47693
4816,205,47694
4817,61,47696
4818,64,47702
4819,212,47706
4820,128,47715
4821,65,47718
4822,133,47721
4823,195,47724
4824,94,47727
4825,59,47728
4826,96,47729
4827,23,47733
4828,29,47734
4829,97,47735
4830,216,47736
4831,214,47737
4832,4,9605
4833,173,9613
4834,91,9641
4835,79,9671
4836,195,9674
4837,45,9676
4838,213,9682
4839,68,9683
4840,3,9684
4841,163,9685
4842,79,9697
4843,135,9708
4844,24,9719
4845,173,9722
4846,117,9726
4847,12,9727
4848,27,9733
4849,204,9734
4850,97,9735
4851,82,9741
4852,209,9747
4853,61,9748
4854,104,9749
4855,23,9750
4856,91,9751
4857,58,9758
4858,21,9762
4859,35,9779
4860,79,9793
4861,132,9795
4862,21,9805
4863,35,9938
4864,34,38760
4865,99,38767
4866,23,38771
4867,135,38773
4868,124,38781
4869,155,38784
4870,6,38785
4871,24,38790
4872,7,38793
4873,209,38798
4874,77,38799
4875,139,38803
4876,37,38815
4877,70,38821
4878,3,38823
4879,127,38824
4880,27,38839
4881,53,38840
4882,76,38844
4883,4,38853
4884,93,38855
4885,212,38861
4886,65,38867
4887,53,38878
4888,43,38879
4889,80,38889
4890,115,38892
4891,17,38899
4892,49,38901
4893,71,38903
4894,132,38909
4895,94,38911
4896,84,59559
4897,11,59560
4898,167,59562
4899,106,59563
4900,141,59565
4901,125,59566
4902,202,59568
4903,96,59569
4904,55,59570
4905,133,59571
4906,34,59572
4907,88,59573
4908,131,59576
4909,216,59577
4910,66,59578
4911,204,59579
4912,208,59582
4913,219,59588
4914,104,59589
4915,45,59590
4916,110,59591
4917,86,59592
4918,88,59593
4919,118,59595
4920,64,59596
4921,59,59597
4922,139,59599
4923,158,59600
4924,87,59603
4925,24,59605
4926,35,59606
4927,181,59608
4928,84,10711
4929,72,10712
4930,41,10755
4931,76,10768
4932,107,10781
4933,139,10789
4934,84,10797
4935,20,10801
4936,195,10810
4937,220,10813
4938,91,10822
4939,193,10825
4940,21,10867
4941,75,10921
4942,131,10929
4943,127,10956
4944,40,10972
4945,28,10980
4946,128,10998
4947,52,11005
4948,5,11014
4949,126,11028
4950,195,11042
4951,103,11059
4952,204,11098
4953,209,11100
4954,130,11112
4955,100,11120
4956,141,11126
4957,41,11158
4958,198,11160
4959,66,11182
4960,65,38890
4961,204,38893
4962,73,38895
4963,78,38902
4964,101,38905
4965,98,38907
4966,204,38916
4967,64,38926
4968,72,38928
4969,179,38943
4970,213,38944
4971,61,38948
4972,135,38977
4973,220,38980
4974,35,38994
4975,70,38995
4976,204,39002
4977,60,39011
4978,107,39013
4979,97,39016
4980,163,39017
4981,20,39023
4982,69,39030
4983,17,39034
4984,138,39035
4985,0,39047
4986,131,39063
4987,68,39068
4988,9,39074
4989,125,39086
4990,42,39108
4991,61,39115
4992,23,22297
4993,36,22308
4994,47,22315
4995,82,22317
4996,14,22325
4997,63,22336
4998,56,22346
4999,47,22352
5000,4,22355
5001,129,22364
5002,0,22369
5003,193,22374
5004,45,22378
5005,220,22380
5006,78,22387
5007,125,22391
5008,204,22396
5009,98,22455
5010,9,22483
5011,11,22484
5012,65,22493
5013,212,22503
5014,20,22513
5015,95,22523
5016,140,22533
5017,143,22541
5018,109,22549
5019,88,22561
5020,58,22569
5021,55,22578
5022,207,22581
5023,220,22600
5024,212,3656
5025,220,3742
5026,3,3776
5027,83,3825
5028,72,3832
5029,76,3844
5030,0,3861
5031,0,3870
5032,91,3886
5033,179,3932
5034,92,3972
5035,46,4017
5036,27,4102
5037,209,4119
5038,87,4125
5039,109,4156
5040,125,4173
5041,140,4180
5042,35,4200
5043,135,4210
5044,7,4224
5045,131,4231
5046,58,4282
5047,43,4387
5048,72,4404
5049,4,4423
5050,91,4450
5051,92,4490
5052,128,4514
5053,81,4598
5054,31,4756
5055,214,4759
5056,11,31158
5057,94,31160
5058,127,31163
5059,55,31164
5060,6,31166
5061,42,31168
5062,2,31171
5063,84,31177
5064,136,31178
5065,63,31182
5066,4,31185
5067,180,31194
5068,103,31207
5069,123,31213
5070,214,31215
5071,98,31218
5072,43,31222
5073,107,31230
5074,52,31231
5075,124,31236
5076,179,31264
5077,65,31265
5078,81,31275
5079,37,31276
5080,185,31282
5081,103,31286
5082,37,31291
5083,33,31294
5084,204,31301
5085,107,31303
5086,81,31316
5087,115,31321
5088,84,17650
5089,78,17658
5090,60,17700
5091,195,17711
5092,21,17719
5093,8,17722
5094,64,17733
5095,209,17758
5096,21,17761
5097,21,17769
5098,212,17792
5099,33,17800
5100,85,17831
5101,1,17854
5102,42,17863
5103,8,17874
5104,47,17917
5105,77,17927
5106,108,17935
5107,58,17937
5108,27,17946
5109,37,17962
5110,107,17980
5111,108,18006
5112,216,18015
5113,140,18032
5114,119,18067
5115,70,18084
5116,130,18169
5117,12,18173
5118,3,18215
5119,42,18223
5120,81,50242
5121,77,50245
5122,42,50246
5123,29,50247
5124,82,50249
5125,195,50251
5126,30,50255
5127,20,50257
5128,217,50259
5129,91,50274
5130,58,50276
5131,87,50278
5132,135,50279
5133,220,50280
5134,125,50285
5135,62,50291
5136,131,50292
5137,62,50294
5138,179,50295
5139,130,50303
5140,58,50307
5141,137,50309
5142,51,50312
5143,132,50314
5144,87,50315
5145,21,50320
5146,59,50326
5147,29,50330
5148,88,50331
5149,35,50332
5150,181,50340
5151,99,50345
5152,213,17079
5153,26,17084
5154,216,17110
5155,118,17115
5156,173,17116
5157,84,17120
5158,62,17140
5159,198,17141
5160,71,17163
5161,137,17201
5162,65,17245
5163,113,17259
5164,101,17270
5165,55,17272
5166,107,17290
5167,85,17310
5168,134,17327
5169,94,17331
5170,81,17333
5171,36,17337
5172,43,17348
5173,30,17354
5174,59,17365
5175,73,17378
5176,73,17381
5177,17,17488
5178,52,17534
5179,111,17570
5180,111,17625
5181,27,17627
5182,79,17637
5183,19,17645
5184,130,59803
5185,55,59804
5186,67,59806
5187,8,59807
5188,106,59808
5189,158,59809
5190,84,59810
5191,53,59811
5192,131,59814
5193,217,59816
5194,140,59817
5195,204,59819
5196,198,59820
5197,135,59824
5198,204,59828
5199,117,59829
5200,30,59831
5201,107,59832
5202,195,59833
5203,107,59834
5204,220,59835
5205,220,59836
5206,106,59837
5207,91,59839
5208,59,59841
5209,94,59842
5210,101,59843
5211,62,59844
5212,107,59845
5213,181,59846
5214,16,59847
5215,108,59850
5216,208,43108
5217,81,43112
5218,125,43115
5219,118,43124
5220,109,43129
5221,46,43142
5222,72,43164
5223,118,43168
5224,64,43170
5225,185,43176
5226,120,43177
5227,204,43181
5228,110,43183
5229,140,43185
5230,217,43190
5231,68,43191
5232,33,43203
5233,72,43210
5234,195,43218
5235,34,43228
5236,33,43232
5237,11,43236
5238,23,43246
5239,73,43253
5240,141,43255
5241,120,43257
5242,214,43260
5243,0,43262
5244,198,43268
5245,107,43275
5246,58,43279
5247,49,43286
5248,135,16740
5249,64,16750
5250,36,16753
5251,57,16771
5252,68,16776
5253,17,16797
5254,110,16819
5255,104,16861
5256,93,16871
5257,58,16884
5258,109,16933
5259,13,16944
5260,13,16952
5261,71,16986
5262,198,17009
5263,106,17017
5264,71,17030
5265,139,17037
5266,116,17055
5267,100,17077
5268,19,17114
5269,107,17124
5270,0,17134
5271,95,17154
5272,48,17218
5273,9,17257
5274,98,17265
5275,209,17295
5276,78,17308
5277,94,17343
5278,1,17404
5279,20,17431
5280,51,45064
5281,27,45065
5282,209,45068
5283,27,45070
5284,78,45075
5285,38,45076
5286,109,45082
5287,41,45088
5288,181,45091
5289,107,45101
5290,58,45106
5291,19,45112
5292,94,45113
5293,59,45117
5294,133,45118
5295,17,45130
5296,92,45135
5297,135,45136
5298,35,45144
5299,91,45153
5300,60,45154
5301,108,45159
5302,81,45160
5303,217,45161
5304,47,45164
5305,209,45165
5306,136,45167
5307,134,45168
5308,6,45171
5309,4,45172
5310,193,45179
5311,35,45183
5312,81,33695
5313,44,33704
5314,63,33709
5315,115,33726
5316,213,33728
5317,99,33745
5318,82,33746
5319,86,33768
5320,113,33806
5321,45,33817
5322,134,33825
5323,138,33831
5324,209,33848
5325,95,33850
5326,67,33853
5327,208,33861
5328,52,33886
5329,26,33891
5330,75,33894
5331,107,33902
5332,7,33903
5333,96,33907
5334,124,33910
5335,37,33911
5336,118,33933
5337,31,33946
5338,14,33955
5339,92,33960
5340,84,33978
5341,35,33996
5342,198,34007
5343,212,34018
5344,110,38065
5345,84,38068
5346,209,38073
5347,13,38083
5348,204,38089
5349,116,38090
5350,41,38112
5351,98,38118
5352,78,38119
5353,30,38120
5354,204,38122
5355,133,38147
5356,35,38167
5357,61,38189
5358,31,38201
5359,20,38202
5360,127,38205
5361,123,38206
5362,58,38208
5363,26,38213
5364,41,38234
5365,23,38240
5366,125,38243
5367,9,38249
5368,104,38250
5369,65,38255
5370,62,38257
5371,65,38258
5372,124,38259
5373,133,38265
5374,212,38266
5375,207,38277
5376,55,2507
5377,78,2567
5378,7,2574
5379,35,2576
5380,213,2589
5381,207,2644
5382,4,2670
5383,17,2674
5384,217,2746
5385,47,2805
5386,140,2819
5387,100,2845
5388,135,2856
5389,126,2857
5390,208,2913
5391,101,2920
5392,61,2949
5393,0,2974
5394,78,2985
5395,4,3004
5396,23,3022
5397,107,3027
5398,61,3028
5399,4,3038
5400,23,3083
5401,93,3088
5402,135,3113
5403,217,3305
5404,68,3324
5405,204,3388
5406,53,3535
5407,81,3701
5408,141,21718
5409,118,21725
5410,13,21726
5411,167,21727
5412,109,21733
5413,96,21744
5414,70,21756
5415,4,21758
5416,87,21776
5417,106,21781
5418,124,21792
5419,51,21819
5420,213,21822
5421,140,21826
5422,181,21834
5423,119,21835
5424,63,21843
5425,35,21854
5426,33,21858
5427,209,21875
5428,179,21901
5429,123,21908
5430,106,21919
5431,8,21927
5432,68,21930
5433,65,21954
5434,40,21958
5435,106,21960
5436,68,21967
5437,135,21985
5438,17,21993
5439,127,21996
5440,32,56939
5441,127,56958
5442,17,56964
5443,125,56978
5444,2,56998
5445,16,57000
5446,207,57005
5447,43,57026
5448,47,57073
5449,19,57086
5450,87,57105
5451,87,57118
5452,3,57123
5453,111,57131
5454,12,57137
5455,212,57153
5456,107,57164
5457,112,57166
5458,138,57172
5459,204,57173
5460,132,57192
5461,137,57200
5462,181,57202
5463,0,57203
5464,47,57206
5465,116,57216
5466,118,57259
5467,87,57263
5468,73,57277
5469,70,57284
5470,92,57296
5471,21,57322
5472,70,55499
5473,2,55500
5474,137,55504
5475,14,55505
5476,208,55508
5477,20,55511
5478,129,55512
5479,30,55514
5480,28,55515
5481,216,55518
5482,128,55523
5483,155,55525
5484,13,55527
5485,76,55534
5486,124,55535
5487,123,55540
5488,204,55541
5489,41,55544
5490,125,55545
5491,64,55546
5492,99,55547
5493,42,55556
5494,67,55560
5495,70,55562
5496,12,55564
5497,55,55565
5498,212,55566
5499,198,55567
5500,6,55574
5501,31,55575
5502,198,55577
5503,101,55584
5504,58,6728
5505,214,6733
5506,134,6753
5507,207,6780
5508,95,6785
5509,90,6791
5510,108,6802
5511,66,6810
5512,24,6811
5513,3,6834
5514,4,6862
5515,208,6876
5516,77,6878
5517,100,6888
5518,49,6898
5519,124,6935
5520,141,6978
5521,34,6980
5522,88,6986
5523,34,7008
5524,132,7016
5525,116,7023
5526,54,7024
5527,118,7029
5528,214,7031
5529,65,7036
5530,143,7038
5531,84,7039
5532,17,7103
5533,19,7141
5534,91,7161
5535,120,7305
5536,16,40488
5537,140,40490
5538,204,40493
5539,216,40497
5540,7,40502
5541,43,40511
5542,35,40517
5543,209,40518
5544,73,40520
5545,45,40525
5546,34,40531
5547,28,40532
5548,61,40537
5549,104,40538
5550,45,40540
5551,82,40542
5552,130,40543
5553,220,40546
5554,47,40548
5555,208,40550
5556,131,40552
5557,106,40556
5558,204,40559
5559,207,40564
5560,60,40566
5561,100,40570
5562,207,40579
5563,123,40584
5564,99,40585
5565,119,40586
5566,25,40594
5567,198,40601
5568,133,25624
5569,127,25626
5570,21,25632
5571,143,25637
5572,98,25656
5573,64,25679
5574,31,25686
5575,133,25687
5576,91,25688
5577,55,25689
5578,59,25691
5579,132,25714
5580,34,25752
5581,45,25754
5582,132,25772
5583,62,25781
5584,193,25785
5585,88,25788
5586,55,25797
5587,212,25819
5588,181,25847
5589,35,25871
5590,208,25872
5591,19,25902
5592,75,25926
5593,32,25935
5594,53,25988
5595,107,25990
5596,3,25999
5597,86,26017
5598,115,26020
5599,0,26024
5600,16,31990
5601,209,31994
5602,88,31995
5603,158,32001
5604,88,32006
5605,179,32027
5606,114,32029
5607,179,32030
5608,204,32036
5609,2,32037
5610,52,32042
5611,118,32060
5612,65,32070
5613,99,32071
5614,43,32074
5615,127,32076
5616,213,32077
5617,158,32084
5618,138,32086
5619,98,32087
5620,47,32096
5621,76,32108
5622,58,32110
5623,24,32112
5624,138,32120
5625,8,32122
5626,121,32127
5627,163,32134
5628,73,32141
5629,138,32145
5630,207,32150
5631,77,32151
5632,70,50629
5633,94,50630
5634,124,50632
5635,12,50635
5636,28,50636
5637,118,50637
5638,126,50638
5639,137,50639
5640,84,50640
5641,116,50641
5642,58,50645
5643,24,50648
5644,21,50652
5645,76,50654
5646,19,50658
5647,87,50660
5648,17,50665
5649,141,50667
5650,42,50670
5651,13,50672
5652,193,50673
5653,128,50674
5654,22,50677
5655,116,50679
5656,58,50680
5657,113,50681
5658,70,50682
5659,216,50686
5660,108,50687
5661,33,50690
5662,9,50691
5663,0,50693
5664,81,50243
5665,88,50244
5666,64,50248
5667,106,50252
5668,109,50253
5669,217,50254
5670,12,50256
5671,76,50258
5672,115,50260
5673,130,50261
5674,2,50262
5675,63,50264
5676,99,50265
5677,138,50266
5678,13,50268
5679,167,50271
5680,20,50272
5681,56,50273
5682,20,50275
5683,70,50277
5684,37,50281
5685,121,50282
5686,98,50286
5687,34,50287
5688,79,50288
5689,173,50289
5690,34,50293
5691,92,50296
5692,70,50297
5693,209,50302
5694,106,50305
5695,167,50310
5696,127,39930
5697,137,39936
5698,217,39939
5699,179,39940
5700,98,39943
5701,208,39944
5702,6,39952
5703,77,39955
5704,198,39957
5705,91,39971
5706,20,39973
5707,82,39974
5708,9,39981
5709,52,39982
5710,204,39983
5711,28,39987
5712,31,39989
5713,65,39994
5714,214,40004
5715,139,40005
5716,84,40008
5717,118,40009
5718,72,40013
5719,34,40030
5720,8,40037
5721,198,40039
5722,185,40043
5723,13,40045
5724,195,40046
5725,77,40048
5726,47,40052
5727,120,40057
5728,34,28396
5729,27,28400
5730,98,28401
5731,58,28406
5732,14,28408
5733,46,28410
5734,132,28412
5735,113,28421
5736,105,28423
5737,103,28426
5738,49,28429
5739,35,28433
5740,211,28436
5741,71,28440
5742,127,28447
5743,125,28451
5744,57,28452
5745,34,28453
5746,73,28457
5747,127,28459
5748,110,28461
5749,141,28466
5750,65,28470
5751,181,28476
5752,211,28479
5753,95,28484
5754,84,28493
5755,30,28495
5756,44,28497
5757,71,28500
5758,40,28503
5759,207,28506
5760,35,12945
5761,104,12956
5762,64,12963
5763,81,12972
5764,195,12987
5765,99,13008
5766,124,13011
5767,198,13019
5768,136,13039
5769,106,13050
5770,71,13054
5771,108,13056
5772,179,13060
5773,20,13081
5774,136,13109
5775,88,13111
5776,43,13126
5777,77,13132
5778,96,13138
5779,173,13141
5780,214,13144
5781,208,13154
5782,59,13155
5783,20,13157
5784,135,13159
5785,17,13174
5786,195,13185
5787,106,13189
5788,37,13193
5789,87,13220
5790,193,13233
5791,48,13238
5792,195,47844
5793,213,47847
5794,8,47849
5795,106,47851
5796,82,47858
5797,52,47859
5798,207,47861
5799,2,47863
5800,128,47868
5801,29,47869
5802,66,47876
5803,24,47880
5804,211,47882
5805,84,47883
5806,8,47885
5807,72,47892
5808,62,47900
5809,85,47901
5810,64,47902
5811,8,47904
5812,156,47909
5813,68,47912
5814,135,47915
5815,92,47916
5816,8,47917
5817,198,47919
5818,37,47922
5819,208,47925
5820,60,47932
5821,119,47936
5822,173,47937
5823,207,47938
5824,65,42817
5825,23,42866
5826,106,42871
5827,62,42876
5828,141,42877
5829,67,42880
5830,133,42908
5831,212,42917
5832,61,42923
5833,91,42930
5834,57,42931
5835,217,42933
5836,0,42957
5837,123,42983
5838,52,43013
5839,0,43044
5840,214,43047
5841,27,43058
5842,180,43104
5843,58,43110
5844,82,43114
5845,100,43118
5846,70,43122
5847,98,43141
5848,81,43146
5849,204,43174
5850,118,43192
5851,75,43226
5852,119,43239
5853,20,43274
5854,143,43296
5855,42,43315
5856,179,4711
5857,19,4712
5858,123,4719
5859,34,4732
5860,100,4749
5861,6,4753
5862,53,4761
5863,163,4775
5864,217,4784
5865,88,4785
5866,96,4786
5867,35,4787
5868,68,4797
5869,40,4801
5870,137,4804
5871,119,4810
5872,94,4853
5873,181,4913
5874,13,4919
5875,45,4930
5876,65,4944
5877,0,4951
5878,207,4979
5879,87,4995
5880,84,5002
5881,124,5055
5882,26,5071
5883,12,5076
5884,34,5077
5885,95,5082
5886,101,5087
5887,61,5093
5888,141,4703
5889,97,4713
5890,34,4769
5891,134,4790
5892,70,4825
5893,141,4841
5894,83,4870
5895,17,4885
5896,107,4929
5897,120,4959
5898,137,4961
5899,91,4974
5900,220,4981
5901,181,5017
5902,135,5047
5903,220,5057
5904,8,5063
5905,38,5066
5906,155,5091
5907,132,5104
5908,134,5132
5909,121,5135
5910,70,5144
5911,213,5145
5912,27,5148
5913,138,5150
5914,1,5170
5915,70,5173
5916,32,5196
5917,99,5200
5918,51,5218
5919,21,5222
5920,101,5754
5921,3,5759
5922,123,5763
5923,109,5784
5924,136,5811
5925,45,5827
5926,13,5886
5927,94,5890
5928,53,5916
5929,179,5958
5930,55,5965
5931,36,5985
5932,12,5986
5933,173,5989
5934,41,6012
5935,12,6026
5936,0,6038
5937,123,6042
5938,185,6046
5939,97,6093
5940,101,6100
5941,19,6101
5942,204,6114
5943,104,6115
5944,35,6152
5945,27,6162
5946,62,6214
5947,98,6218
5948,106,6268
5949,73,6383
5950,63,6411
5951,119,6425
5952,41,38525
5953,70,38537
5954,58,38551
5955,78,38570
5956,70,38580
5957,64,38600
5958,58,38601
5959,136,38616
5960,73,38624
5961,12,38635
5962,96,38643
5963,53,38660
5964,128,38688
5965,127,38693
5966,216,38702
5967,96,38709
5968,94,38718
5969,19,38723
5970,88,38737
5971,204,38763
5972,127,38775
5973,16,38795
5974,163,38800
5975,198,38801
5976,34,38810
5977,135,38812
5978,220,38818
5979,65,38826
5980,58,38828
5981,68,38830
5982,220,38865
5983,24,38874
5984,0,59607
5985,115,59618
5986,92,59644
5987,48,59648
5988,193,59670
5989,106,59672
5990,136,59686
5991,220,59732
5992,126,59743
5993,96,59762
5994,64,59812
5995,204,59813
5996,213,59818
5997,126,59821
5998,87,59838
5999,53,59872
6000,82,59874
6001,129,59881
6002,129,59884
6003,34,59886
6004,66,59893
6005,126,59898
6006,127,59991
6007,1,60030
6008,195,60064
6009,116,60126
6010,134,60151
6011,58,60189
6012,79,60192
6013,65,60208
6014,64,60228
6015,113,60276
6016,58,8749
6017,195,8756
6018,34,8778
6019,69,8788
6020,119,8790
6021,137,8795
6022,20,8802
6023,65,8819
6024,2,8844
6025,0,8845
6026,143,8851
6027,73,8873
6028,124,8888
6029,70,8891
6030,119,8893
6031,79,8898
6032,13,8904
6033,65,8910
6034,58,8924
6035,204,8927
6036,3,8940
6037,124,8942
6038,41,8950
6039,113,8954
6040,87,8955
6041,117,8961
6042,92,8962
6043,195,8978
6044,8,8987
6045,173,8999
6046,32,9019
6047,53,9023
6048,37,48481
6049,133,48493
6050,76,48494
6051,71,48496
6052,93,48498
6053,126,48516
6054,220,48522
6055,207,48526
6056,123,48539
6057,132,48540
6058,163,48546
6059,30,48556
6060,140,48561
6061,43,48569
6062,57,48589
6063,73,48594
6064,101,48602
6065,24,48604
6066,64,48612
6067,54,48636
6068,42,48638
6069,209,48639
6070,80,48651
6071,33,48668
6072,87,48672
6073,123,48674
6074,134,48676
6075,123,48683
6076,135,48685
6077,133,48691
6078,64,48705
6079,207,48709
6080,217,38487
6081,62,38490
6082,56,38493
6083,121,38495
6084,143,38502
6085,84,38508
6086,212,38517
6087,4,38521
6088,213,38522
6089,100,38529
6090,106,38534
6091,208,38540
6092,73,38542
6093,216,38543
6094,116,38548
6095,216,38549
6096,131,38552
6097,76,38555
6098,17,38561
6099,3,38565
6100,179,38571
6101,71,38572
6102,125,38579
6103,138,38588
6104,134,38594
6105,82,38602
6106,104,38605
6107,106,38608
6108,41,38609
6109,217,38611
6110,106,38618
6111,217,38620
6112,213,24148
6113,81,24149
6114,52,24163
6115,193,24164
6116,1,24173
6117,45,24183
6118,135,24194
6119,207,24195
6120,155,24197
6121,0,24203
6122,117,24207
6123,24,24215
6124,128,24222
6125,141,24227
6126,40,24232
6127,35,24235
6128,134,24240
6129,56,24245
6130,54,24259
6131,107,24264
6132,131,24268
6133,217,24269
6134,79,24281
6135,12,24285
6136,211,24292
6137,141,24297
6138,134,24300
6139,98,24301
6140,70,24303
6141,57,24305
6142,212,24309
6143,21,24314
6144,84,59521
6145,16,59522
6146,36,59525
6147,22,59526
6148,58,59527
6149,27,59528
6150,129,59529
6151,12,59530
6152,131,59531
6153,138,59532
6154,84,59534
6155,137,59535
6156,17,59536
6157,42,59537
6158,179,59538
6159,63,59540
6160,58,59541
6161,155,59542
6162,216,59543
6163,100,59544
6164,83,59545
6165,133,59546
6166,61,59547
6167,208,59548
6168,207,59549
6169,24,59550
6170,78,59551
6171,132,59552
6172,130,59553
6173,73,59556
6174,20,59557
6175,65,59558
6176,17,46540
6177,29,46545
6178,128,46546
6179,43,46547
6180,47,46549
6181,128,46550
6182,43,46553
6183,81,46555
6184,163,46562
6185,6,46563
6186,118,46564
6187,155,46567
6188,73,46571
6189,76,46572
6190,113,46575
6191,187,46577
6192,113,46578
6193,133,46581
6194,128,46582
6195,107,46583
6196,208,46584
6197,41,46585
6198,70,46591
6199,45,46593
6200,209,46597
6201,104,46603
6202,24,46604
6203,133,46605
6204,112,46608
6205,69,46612
6206,35,46622
6207,208,46624
6208,209,57286
6209,193,57288
6210,134,57289
6211,44,57290
6212,195,57293
6213,33,57294
6214,0,57295
6215,78,57301
6216,108,57302
6217,21,57304
6218,212,57305
6219,108,57307
6220,41,57308
6221,33,57310
6222,181,57312
6223,97,57313
6224,45,57314
6225,134,57315
6226,127,57319
6227,70,57321
6228,45,57323
6229,65,57324
6230,49,57326
6231,139,57327
6232,135,57330
6233,133,57331
6234,185,57333
6235,15,57334
6236,173,57337
6237,70,57340
6238,45,57342
6239,4,57343
6240,17,41614
6241,70,41621
6242,7,41622
6243,94,41623
6244,133,41625
6245,88,41662
6246,213,41671
6247,8,41683
6248,195,41688
6249,60,41695
6250,14,41700
6251,217,41701
6252,41,41704
6253,212,41713
6254,131,41721
6255,82,41722
6256,27,41723
6257,116,41746
6258,108,41754
6259,24,41756
6260,104,41760
6261,8,41763
6262,104,41765
6263,8,41767
6264,130,41768
6265,204,41773
6266,20,41777
6267,131,41785
6268,24,41789
6269,209,41795
6270,0,41796
6271,217,41799
6272,67,4414
6273,135,4452
6274,24,4538
6275,79,4562
6276,98,4584
6277,58,4650
6278,20,4741
6279,87,4806
6280,6,4830
6281,212,4833
6282,179,4918
6283,71,5128
6284,141,5315
6285,87,5316
6286,87,5396
6287,81,5445
6288,14,5459
6289,60,5601
6290,35,6207
6291,101,6458
6292,73,6936
6293,0,6984
6294,220,9823
6295,204,10063
6296,137,11151
6297,128,12504
6298,123,12514
6299,77,13281
6300,126,13908
6301,16,14084
6302,107,14335
6303,62,14738
6304,94,34757
6305,204,34775
6306,134,34782
6307,85,34801
6308,207,34802
6309,68,34806
6310,193,34819
6311,132,34824
6312,28,34831
6313,12,34832
6314,32,34839
6315,78,34851
6316,108,34853
6317,220,34859
6318,135,34866
6319,139,34874
6320,141,34899
6321,0,34907
6322,101,34913
6323,24,34922
6324,6,34924
6325,27,34927
6326,92,34937
6327,20,34943
6328,17,34948
6329,138,34968
6330,51,34978
6331,136,34979
6332,108,34984
6333,217,34987
6334,42,34991
6335,53,34993
6336,0,3707
6337,51,3736
6338,98,3810
6339,104,3830
6340,61,3836
6341,65,3848
6342,117,3863
6343,75,3880
6344,35,3985
6345,129,4018
6346,141,4052
6347,167,4078
6348,155,4087
6349,78,4101
6350,87,4155
6351,33,4161
6352,60,4165
6353,65,4188
6354,100,4193
6355,216,4199
6356,135,4225
6357,100,4277
6358,12,4306
6359,208,4326
6360,124,4330
6361,129,4335
6362,34,4348
6363,68,4413
6364,101,4429
6365,4,4455
6366,9,4476
6367,104,4515
6368,11,57595
6369,40,57642
6370,61,58062
6371,46,58153
6372,9,58581
6373,133,58589
6374,8,457
6375,3,480
6376,40,500
6377,19,522
6378,81,644
6379,179,658
6380,86,682
6381,41,810
6382,41,819
6383,167,913
6384,77,933
6385,130,1569
6386,93,1595
6387,124,2338
6388,111,2378
6389,45,2556
6390,76,3340
6391,52,3371
6392,21,3486
6393,19,3522
6394,9,3677
6395,113,4468
6396,54,4956
6397,141,4978
6398,51,4980
6399,120,5015
6400,21,47115
6401,137,47119
6402,129,47120
6403,35,47122
6404,34,47124
6405,138,47125
6406,51,47126
6407,62,47128
6408,98,47130
6409,8,47132
6410,193,47133
6411,41,47138
6412,56,47141
6413,216,47143
6414,17,47146
6415,181,47152
6416,207,47155
6417,208,47157
6418,83,47160
6419,87,47162
6420,76,47164
6421,141,47167
6422,71,47169
6423,193,47173
6424,12,47174
6425,47,47179
6426,47,47180
6427,30,47182
6428,128,47183
6429,23,47186
6430,133,47187
6431,27,47191
6432,108,19827
6433,70,19838
6434,47,19864
6435,127,19866
6436,104,19876
6437,73,19911
6438,16,19917
6439,140,19920
6440,204,19926
6441,139,19977
6442,116,19985
6443,121,19994
6444,158,20026
6445,135,20080
6446,64,20081
6447,34,20108
6448,129,20113
6449,173,20143
6450,120,20197
6451,129,20222
6452,124,20259
6453,121,20304
6454,17,20308
6455,57,20317
6456,114,20321
6457,73,20326
6458,82,20444
6459,107,20503
6460,20,20533
6461,73,20550
6462,60,20558
6463,0,20585
6464,129,54669
6465,72,54704
6466,70,54743
6467,108,54768
6468,127,54782
6469,23,54790
6470,55,54801
6471,59,54804
6472,12,54830
6473,139,54837
6474,25,54844
6475,92,54845
6476,33,54932
6477,208,54936
6478,58,54945
6479,19,54977
6480,120,54993
6481,217,55005
6482,87,55104
6483,86,55105
6484,135,55106
6485,125,55112
6486,107,55124
6487,92,55126
6488,17,55153
6489,52,55165
6490,77,55192
6491,40,55198
6492,193,55212
6493,137,55226
6494,66,55232
6495,124,55246
6496,8,52730
6497,12,52733
6498,57,52735
6499,115,52737
6500,207,52738
6501,17,52740
6502,198,52742
6503,76,52743
6504,69,52746
6505,0,52749
6506,220,52751
6507,198,52752
6508,185,52754
6509,214,52756
6510,52,52757
6511,217,52758
6512,187,52760
6513,131,52764
6514,104,52768
6515,198,52776
6516,70,52784
6517,16,52786
6518,4,52787
6519,92,52788
6520,88,52790
6521,158,52791
6522,45,52793
6523,22,52794
6524,92,52795
6525,57,52798
6526,81,52801
6527,88,52802
6528,193,40418
6529,214,40433
6530,43,40435
6531,167,40437
6532,81,40447
6533,64,40448
6534,20,40449
6535,220,40451
6536,35,40455
6537,114,40458
6538,137,40459
6539,114,40473
6540,4,40485
6541,163,40489
6542,30,40495
6543,78,40501
6544,78,40503
6545,58,40504
6546,40,40507
6547,99,40509
6548,98,40514
6549,128,40524
6550,19,40533
6551,30,40553
6552,204,40567
6553,119,40575
6554,79,40602
6555,42,40610
6556,42,40615
6557,167,40616
6558,126,40618
6559,96,40628
6560,121,29308
6561,185,29313
6562,110,29321
6563,127,29330
6564,3,29331
6565,87,29332
6566,109,29353
6567,204,29356
6568,64,29358
6569,17,29378
6570,63,29392
6571,137,29395
6572,3,29410
6573,125,29411
6574,193,29412
6575,98,29415
6576,97,29416
6577,113,29419
6578,158,29421
6579,96,29422
6580,78,29425
6581,44,29440
6582,126,29444
6583,9,29448
6584,120,29452
6585,63,29457
6586,87,29463
6587,173,29466
6588,76,29471
6589,198,29477
6590,32,29479
6591,217,29489
6592,11,10751
6593,59,10760
6594,73,10887
6595,27,10901
6596,216,10943
6597,57,10947
6598,9,10949
6599,66,10957
6600,62,10960
6601,62,10966
6602,49,10992
6603,207,11025
6604,126,11026
6605,81,11036
6606,214,11043
6607,8,11047
6608,19,11054
6609,208,11057
6610,9,11090
6611,139,11091
6612,110,11118
6613,127,11121
6614,27,11134
6615,23,11149
6616,106,11154
6617,87,11183
6618,110,11204
6619,185,11220
6620,139,11235
6621,32,11240
6622,20,11241
6623,77,11261
6624,3,28961
6625,208,28966
6626,120,29008
6627,63,29011
6628,94,29014
6629,26,29035
6630,73,29053
6631,43,29065
6632,22,29066
6633,87,29072
6634,108,29083
6635,58,29092
6636,90,29101
6637,103,29109
6638,131,29123
6639,163,29132
6640,106,29136
6641,57,29165
6642,66,29178
6643,214,29182
6644,52,29190
6645,35,29226
6646,73,29238
6647,96,29251
6648,24,29266
6649,139,29268
6650,65,29292
6651,3,29311
6652,60,29335
6653,204,29355
6654,9,29357
6655,61,29403
6656,94,51743
6657,204,51750
6658,58,51751
6659,136,51758
6660,91,51759
6661,71,51761
6662,68,51782
6663,198,51796
6664,86,51797
6665,217,51800
6666,220,51810
6667,79,51817
6668,83,51822
6669,214,51839
6670,34,51853
6671,78,51859
6672,103,51863
6673,213,51904
6674,96,51908
6675,158,51947
6676,207,51963
6677,58,51971
6678,31,51972
6679,28,51973
6680,3,51977
6681,208,51981
6682,106,51998
6683,110,51999
6684,34,52006
6685,204,52008
6686,127,52017
6687,107,52040
6688,198,32562
6689,198,32567
6690,81,32574
6691,167,32575
6692,42,32582
6693,71,32583
6694,12,32584
6695,108,32588
6696,49,32597
6697,41,32598
6698,97,32599
6699,9,32601
6700,47,32606
6701,198,32617
6702,179,32627
6703,47,32641
6704,70,32652
6705,135,32657
6706,61,32659
6707,73,32660
6708,69,32679
6709,43,32689
6710,59,32699
6711,7,32721
6712,52,32726
6713,16,32731
6714,99,32738
6715,41,32739
6716,212,32748
6717,35,32749
6718,82,32750
6719,68,32764
6720,38,52261
6721,216,52269
6722,134,52274
6723,45,52277
6724,19,52278
6725,73,52279
6726,44,52282
6727,20,52287
6728,204,52288
6729,2,52291
6730,111,52297
6731,127,52299
6732,181,52301
6733,143,52302
6734,163,52303
6735,58,52304
6736,58,52305
6737,91,52306
6738,209,52313
6739,8,52320
6740,58,52332
6741,34,52340
6742,195,52348
6743,107,52355
6744,55,52365
6745,217,52373
6746,68,52374
6747,70,52378
6748,9,52387
6749,62,52390
6750,19,52392
6751,78,52393
6752,90,40058
6753,127,40063
6754,116,40066
6755,66,40069
6756,65,40072
6757,81,40075
6758,133,40076
6759,55,40078
6760,98,40080
6761,44,40082
6762,35,40084
6763,127,40092
6764,44,40093
6765,141,40094
6766,137,40096
6767,48,40097
6768,27,40098
6769,17,40099
6770,204,40102
6771,92,40103
6772,98,40108
6773,38,40109
6774,207,40111
6775,99,40113
6776,27,40114
6777,70,40116
6778,85,40117
6779,49,40119
6780,211,40123
6781,78,40128
6782,90,40130
6783,107,40132
6784,99,9009
6785,14,9012
6786,87,9025
6787,119,9030
6788,59,9031
6789,72,9034
6790,35,9038
6791,49,9039
6792,4,9042
6793,68,9048
6794,92,9053
6795,104,9054
6796,35,9061
6797,21,9066
6798,84,9075
6799,116,9081
6800,32,9084
6801,34,9088
6802,27,9112
6803,70,9122
6804,52,9125
6805,0,9131
6806,220,9135
6807,69,9138
6808,98,9142
6809,135,9143
6810,72,9154
6811,23,9155
6812,128,9161
6813,8,9178
6814,7,9179
6815,100,9222
6816,58,33074
6817,50,33078
6818,185,33082
6819,58,33100
6820,70,33106
6821,198,33116
6822,26,33128
6823,213,33133
6824,8,33135
6825,35,33138
6826,62,33146
6827,84,33148
6828,27,33150
6829,61,33152
6830,94,33157
6831,207,33164
6832,13,33179
6833,198,33188
6834,13,33190
6835,47,33197
6836,43,33199
6837,4,33206
6838,9,33212
6839,204,33226
6840,109,33236
6841,27,33255
6842,220,33276
6843,30,33279
6844,217,33291
6845,76,33294
6846,120,33295
6847,109,33297
6848,52,37458
6849,101,37472
6850,88,37475
6851,60,37483
6852,119,37494
6853,44,37499
6854,138,37509
6855,76,37517
6856,106,37532
6857,83,37536
6858,82,37554
6859,185,37558
6860,35,37565
6861,47,37579
6862,91,37588
6863,70,37590
6864,98,37591
6865,135,37597
6866,34,37611
6867,84,37617
6868,94,37621
6869,217,37628
6870,87,37633
6871,114,37645
6872,98,37648
6873,117,37655
6874,11,37666
6875,110,37669
6876,57,37670
6877,58,37679
6878,4,37690
6879,33,37697
6880,108,21989
6881,70,21990
6882,202,21991
6883,20,22000
6884,94,22011
6885,12,22026
6886,220,22031
6887,20,22032
6888,103,22059
6889,7,22060
6890,217,22066
6891,193,22067
6892,106,22087
6893,211,22092
6894,34,22122
6895,198,22132
6896,35,22134
6897,64,22139
6898,78,22163
6899,40,22177
6900,46,22184
6901,46,22197
6902,35,22207
6903,35,22209
6904,140,22224
6905,70,22235
6906,65,22248
6907,116,22249
6908,121,22253
6909,35,22255
6910,37,22262
6911,70,22265
6912,47,15922
6913,195,15927
6914,14,15969
6915,139,15978
6916,95,15979
6917,86,15997
6918,207,16004
6919,3,16026
6920,20,16080
6921,106,16092
6922,80,16096
6923,78,16125
6924,116,16127
6925,123,16134
6926,30,16140
6927,65,16148
6928,208,16156
6929,207,16158
6930,111,16189
6931,3,16190
6932,87,16208
6933,114,16222
6934,75,16238
6935,8,16260
6936,193,16266
6937,7,16274
6938,72,16280
6939,198,16301
6940,35,16307
6941,93,16311
6942,70,16327
6943,126,16359
6944,131,4319
6945,82,4325
6946,24,4338
6947,82,4410
6948,180,4494
6949,28,4495
6950,35,4523
6951,137,4535
6952,173,4536
6953,158,4537
6954,129,4549
6955,87,4557
6956,141,4607
6957,0,4687
6958,108,4751
6959,64,4773
6960,40,4794
6961,138,4829
6962,19,4852
6963,20,4871
6964,83,4873
6965,87,4897
6966,40,4904
6967,138,4907
6968,80,4926
6969,19,4936
6970,72,4952
6971,19,4967
6972,33,4968
6973,12,5022
6974,125,5033
6975,24,5042
6976,73,55964
6977,47,55965
6978,69,55968
6979,51,55970
6980,89,55971
6981,109,55974
6982,87,55975
6983,41,55976
6984,207,55977
6985,11,55978
6986,8,55980
6987,61,55983
6988,69,55985
6989,135,55986
6990,20,55987
6991,52,55988
6992,124,55989
6993,88,55998
6994,70,56001
6995,29,56003
6996,46,56004
6997,55,56008
6998,25,56010
6999,55,56011
7000,11,56013
7001,29,56014
7002,6,56015
7003,198,56023
7004,111,56024
7005,33,56027
7006,41,56028
7007,55,56029
7008,35,54184
7009,116,54188
7010,30,54190
7011,207,54193
7012,88,54201
7013,76,54203
7014,110,54204
7015,155,54207
7016,70,54214
7017,126,54215
7018,28,54216
7019,30,54220
7020,98,54225
7021,45,54228
7022,88,54235
7023,10,54237
7024,75,54244
7025,173,54246
7026,8,54250
7027,111,54255
7028,24,54258
7029,213,54261
7030,179,54268
7031,220,54271
7032,66,54272
7033,179,54274
7034,70,54275
7035,135,54277
7036,14,54278
7037,213,54280
7038,68,54281
7039,73,54282
7040,23,56446
7041,55,56447
7042,1,56448
7043,173,56449
7044,27,56453
7045,106,56456
7046,141,56459
7047,143,56460
7048,78,56461
7049,98,56462
7050,134,56464
7051,207,56467
7052,110,56472
7053,120,56474
7054,212,56476
7055,13,56479
7056,133,56482
7057,179,56489
7058,17,56490
7059,179,56492
7060,126,56493
7061,16,56494
7062,84,56496
7063,106,56499
7064,163,56500
7065,134,56501
7066,41,56502
7067,29,56503
7068,68,56507
7069,12,56508
7070,0,56510
7071,32,56511
7072,92,18915
7073,47,18918
7074,204,18948
7075,0,18951
7076,71,18955
7077,70,18962
7078,109,18967
7079,55,18972
7080,66,18992
7081,123,19002
7082,118,19025
7083,204,19046
7084,12,19050
7085,114,19059
7086,217,19060
7087,62,19088
7088,46,19102
7089,76,19115
7090,3,19118
7091,117,19136
7092,179,19139
7093,143,19144
7094,134,19163
7095,47,19175
7096,128,19189
7097,106,19197
7098,94,19213
7099,65,19216
7100,220,19226
7101,92,19232
7102,34,19233
7103,214,19245
7104,60,36522
7105,198,36545
7106,34,36549
7107,124,36558
7108,42,36562
7109,135,36565
7110,143,36566
7111,96,36567
7112,4,36571
7113,70,36583
7114,135,36584
7115,79,36586
7116,73,36590
7117,10,36592
7118,87,36594
7119,16,36608
7120,21,36631
7121,7,36638
7122,58,36640
7123,40,36643
7124,28,36644
7125,180,36650
7126,12,36657
7127,65,36662
7128,99,36682
7129,96,36688
7130,129,36690
7131,12,36694
7132,141,36695
7133,64,36714
7134,19,36715
7135,214,36717
7136,3,11186
7137,134,11200
7138,70,11213
7139,40,11229
7140,193,11246
7141,71,11267
7142,17,11296
7143,111,11300
7144,173,11320
7145,8,11327
7146,179,11331
7147,125,11336
7148,209,11365
7149,84,11367
7150,41,11377
7151,138,11380
7152,107,11392
7153,217,11394
7154,51,11412
7155,0,11418
7156,213,11420
7157,73,11429
7158,18,11449
7159,58,11453
7160,179,11464
7161,128,11468
7162,212,11487
7163,208,11490
7164,76,11493
7165,60,11518
7166,62,11531
7167,50,11539
7168,35,44330
7169,139,44333
7170,99,44335
7171,87,44336
7172,68,44340
7173,110,44341
7174,54,44354
7175,209,44357
7176,44,44363
7177,124,44364
7178,58,44365
7179,216,44366
7180,207,44376
7181,111,44385
7182,80,44393
7183,10,44403
7184,41,44410
7185,163,44424
7186,208,44426
7187,128,44428
7188,78,44433
7189,120,44441
7190,96,44446
7191,131,44449
7192,55,44451
7193,61,44453
7194,14,44455
7195,72,44457
7196,51,44459
7197,78,44470
7198,14,44474
7199,173,44486
7200,91,9265
7201,81,9269
7202,216,9271
7203,213,9282
7204,87,9283
7205,111,9286
7206,213,9287
7207,207,9294
7208,97,9302
7209,53,9320
7210,91,9327
7211,216,9328
7212,134,9331
7213,137,9339
7214,167,9344
7215,51,9345
7216,38,9348
7217,6,9354
7218,70,9355
7219,108,9366
7220,41,9373
7221,37,9377
7222,117,9379
7223,208,9382
7224,92,9383
7225,209,9388
7226,34,9404
7227,7,9410
7228,27,9422
7229,35,9428
7230,204,9429
7231,124,9430
7232,217,47646
7233,216,47648
7234,2,47659
7235,86,47665
7236,87,47676
7237,216,47688
7238,109,47705
7239,143,47713
7240,4,47726
7241,34,47732
7242,59,47746
7243,33,47747
7244,134,47749
7245,96,47753
7246,30,47755
7247,180,47763
7248,158,47783
7249,68,47785
7250,90,47790
7251,58,47804
7252,84,47808
7253,29,47813
7254,139,47818
7255,135,47821
7256,22,47829
7257,61,47834
7258,8,47852
7259,131,47853
7260,46,47854
7261,92,47865
7262,132,47873
7263,111,47875
7264,140,8417
7265,124,8420
7266,179,8472
7267,98,8495
7268,49,8588
7269,129,8637
7270,70,8656
7271,19,8658
7272,64,8679
7273,133,8708
7274,134,8709
7275,16,8724
7276,0,8786
7277,83,8817
7278,15,8824
7279,32,8882
7280,98,8892
7281,49,8969
7282,40,8981
7283,49,8983
7284,27,9064
7285,70,9080
7286,53,9090
7287,28,9105
7288,195,9107
7289,127,9115
7290,34,9144
7291,113,9152
7292,94,9172
7293,24,9177
7294,141,9186
7295,141,9193
7296,94,48555
7297,134,48557
7298,116,48558
7299,136,48559
7300,15,48560
7301,70,48563
7302,109,48564
7303,10,48572
7304,179,48575
7305,106,48576
7306,82,48577
7307,170,48582
7308,108,48586
7309,81,48588
7310,57,48593
7311,76,48599
7312,78,48605
7313,0,48607
7314,116,48608
7315,138,48609
7316,86,48610
7317,52,48611
7318,195,48613
7319,180,48617
7320,134,48619
7321,69,48620
7322,23,48623
7323,208,48625
7324,211,48629
7325,214,48630
7326,126,48631
7327,171,48633
7328,87,44472
7329,81,44495
7330,35,44521
7331,73,44523
7332,133,44526
7333,103,44534
7334,112,44543
7335,163,44550
7336,58,44563
7337,60,44566
7338,179,44573
7339,128,44586
7340,138,44606
7341,204,44607
7342,94,44616
7343,52,44620
7344,104,44628
7345,62,44646
7346,76,44647
7347,126,44656
7348,52,44659
7349,76,44660
7350,138,44664
7351,99,44670
7352,16,44676
7353,70,44680
7354,195,44689
7355,213,44697
7356,58,44710
7357,143,44717
7358,217,44726
7359,32,44728
7360,88,42424
7361,209,42440
7362,88,42442
7363,213,42445
7364,21,42452
7365,41,42461
7366,20,42467
7367,204,42468
7368,136,42476
7369,97,42495
7370,96,42498
7371,135,42499
7372,125,42505
7373,128,42515
7374,140,42516
7375,73,42517
7376,73,42522
7377,201,42534
7378,114,42536
7379,173,42537
7380,43,42538
7381,16,42540
7382,101,42545
7383,118,42550
7384,6,42552
7385,173,42560
7386,60,42565
7387,173,42567
7388,118,42568
7389,70,42572
7390,9,42575
7391,204,42576
7392,195,7392
7393,20,7410
7394,49,7411
7395,27,7438
7396,212,7447
7397,13,7471
7398,44,7479
7399,103,7484
7400,198,7487
7401,21,7514
7402,26,7529
7403,23,7539
7404,213,7543
7405,70,7569
7406,107,7586
7407,96,7600
7408,140,7635
7409,3,7665
7410,208,7696
7411,76,7804
7412,62,7831
7413,51,7875
7414,135,7891
7415,53,7908
7416,65,7947
7417,38,7952
7418,53,7994
7419,8,8012
7420,124,8032
7421,100,8063
7422,87,8106
7423,216,8121
7424,21,3741
7425,209,3757
7426,42,3767
7427,141,3768
7428,204,3878
7429,20,3892
7430,44,3939
7431,216,3941
7432,38,4016
7433,70,4023
7434,3,4026
7435,0,4051
7436,12,4063
7437,41,4079
7438,12,4149
7439,24,4255
7440,87,4270
7441,48,4332
7442,63,4337
7443,92,4373
7444,212,4378
7445,76,4486
7446,34,4499
7447,108,4512
7448,27,4516
7449,123,4542
7450,55,4561
7451,99,4585
7452,80,4601
7453,1,4604
7454,204,4621
7455,61,4637
7456,0,44826
7457,195,44827
7458,112,44838
7459,73,44843
7460,118,44844
7461,137,44849
7462,61,44850
7463,76,44851
7464,204,44864
7465,207,44865
7466,141,44866
7467,137,44870
7468,111,44874
7469,213,44876
7470,98,44877
7471,35,44878
7472,4,44880
7473,64,44885
7474,126,44887
7475,0,44890
7476,47,44894
7477,60,44898
7478,96,44899
7479,10,44900
7480,117,44913
7481,217,44918
7482,137,44919
7483,108,44921
7484,52,44922
7485,84,44924
7486,198,44927
7487,174,44929
7488,163,27056
7489,87,27057
7490,67,27060
7491,37,27062
7492,83,27070
7493,216,27075
7494,15,27077
7495,111,27079
7496,208,27099
7497,103,27104
7498,198,27107
7499,140,27112
7500,116,27114
7501,28,27116
7502,116,27139
7503,17,27145
7504,90,27152
7505,73,27155
7506,59,27158
7507,106,27176
7508,130,27181
7509,29,27195
7510,106,27209
7511,49,27213
7512,57,27215
7513,46,27227
7514,217,27242
7515,208,27243
7516,65,27245
7517,220,27247
7518,34,27251
7519,44,27262
7520,19,25993
7521,27,25995
7522,124,26012
7523,202,26015
7524,8,26026
7525,207,26029
7526,82,26034
7527,72,26048
7528,45,26051
7529,111,26059
7530,185,26078
7531,96,26088
7532,111,26090
7533,181,26094
7534,208,26111
7535,127,26112
7536,38,26117
7537,66,26119
7538,2,26123
7539,207,26133
7540,208,26136
7541,181,26146
7542,4,26151
7543,8,26167
7544,70,26171
7545,109,26179
7546,32,26187
7547,208,26192
7548,207,26194
7549,129,26195
7550,217,26198
7551,20,26199
7552,137,43149
7553,208,43155
7554,106,43165
7555,21,43209
7556,135,43238
7557,66,43247
7558,87,43254
7559,33,43269
7560,118,43270
7561,138,43271
7562,204,43278
7563,64,43305
7564,155,43313
7565,62,43323
7566,214,43337
7567,54,43342
7568,34,43362
7569,204,43368
7570,72,43370
7571,179,43389
7572,13,43391
7573,72,43395
7574,47,43403
7575,82,43429
7576,217,43430
7577,108,43442
7578,193,43446
7579,9,43503
7580,91,43506
7581,78,43523
7582,180,43534
7583,107,43537
7584,131,35549
7585,220,35557
7586,78,35558
7587,52,35563
7588,107,35588
7589,29,35592
7590,204,35598
7591,127,35611
7592,131,35624
7593,173,35625
7594,71,35636
7595,78,35658
7596,26,35660
7597,0,35663
7598,55,35668
7599,65,35675
7600,84,35679
7601,60,35680
7602,37,35685
7603,70,35690
7604,47,35692
7605,123,35693
7606,78,35696
7607,19,35724
7608,213,35746
7609,47,35748
7610,202,35749
7611,3,35751
7612,78,35752
7613,134,35755
7614,158,35756
7615,99,35762
7616,137,49349
7617,58,49353
7618,0,49354
7619,0,49355
7620,53,49356
7621,44,49358
7622,16,49359
7623,173,49363
7624,26,49366
7625,204,49373
7626,141,49377
7627,68,49379
7628,217,49381
7629,179,49382
7630,137,49384
7631,203,49386
7632,82,49396
7633,66,49402
7634,133,49407
7635,116,49409
7636,47,49414
7637,9,49420
7638,100,49432
7639,7,49438
7640,99,49445
7641,97,49449
7642,82,49451
7643,14,49455
7644,17,49457
7645,59,49459
7646,88,49460
7647,112,49461
7648,66,29851
7649,139,29869
7650,49,29871
7651,209,29875
7652,173,29877
7653,118,29885
7654,82,29894
7655,111,29898
7656,62,29899
7657,133,29903
7658,198,29905
7659,220,29908
7660,2,29913
7661,134,29917
7662,65,29921
7663,62,29927
7664,84,29941
7665,4,29956
7666,111,29962
7667,82,29964
7668,116,29965
7669,61,29969
7670,11,29981
7671,114,29988
7672,76,29989
7673,100,30000
7674,87,30013
7675,76,30021
7676,179,30022
7677,8,30023
7678,12,30025
7679,127,30029
7680,59,11129
7681,220,793
7682,98,986
7683,69,1043
7684,83,1226
7685,214,1329
7686,208,1401
7687,135,1446
7688,38,1743
7689,21,1758
7690,9,1897
7691,216,2036
7692,16,3783
7693,13,3791
7694,68,3801
7695,140,4044
7696,111,4256
7697,21,4624
7698,59,5129
7699,138,11569
7700,35,11659
7701,99,9
7702,163,27
7703,111,84
7704,87,103
7705,94,140
7706,12,239
7707,81,705
7708,101,1162
7709,2,1215
7710,217,1216
7711,63,1276
7712,87,9314
7713,7,9319
7714,64,9326
7715,8,9336
7716,38,9350
7717,198,9387
7718,8,9464
7719,220,9528
7720,52,9556
7721,204,9593
7722,24,9646
7723,70,9658
7724,120,9693
7725,40,9731
7726,45,9736
7727,94,9768
7728,59,9789
7729,112,9809
7730,73,9826
7731,36,9828
7732,124,9838
7733,47,9843
7734,28,9851
7735,8,9882
7736,125,9891
7737,207,9927
7738,41,9939
7739,77,9941
7740,138,9959
7741,204,9963
7742,29,9983
7743,104,9998
7744,72,48645
7745,65,48646
7746,0,48647
7747,46,48649
7748,23,48655
7749,97,48656
7750,163,48658
7751,98,48659
7752,35,48661
7753,134,48662
7754,99,48666
7755,78,48667
7756,110,48670
7757,12,48673
7758,2,48677
7759,141,48679
7760,46,48680
7761,129,48681
7762,140,48687
7763,91,48688
7764,133,48689
7765,88,48692
7766,90,48694
7767,213,48698
7768,6,48702
7769,38,48703
7770,125,48704
7771,116,48707
7772,101,48708
7773,13,48711
7774,217,48713
7775,214,48717
7776,96,55092
7777,65,55094
7778,47,55095
7779,179,55097
7780,52,55100
7781,134,55102
7782,53,55103
7783,132,55108
7784,81,55109
7785,135,55113
7786,0,55115
7787,58,55117
7788,131,55118
7789,98,55121
7790,193,55123
7791,193,55127
7792,35,55128
7793,47,55132
7794,128,55136
7795,135,55137
7796,109,55143
7797,212,55144
7798,208,55146
7799,11,55147
7800,128,55149
7801,127,55150
7802,123,55156
7803,71,55163
7804,93,55164
7805,86,55167
7806,195,55170
7807,104,55175
7808,43,18632
7809,55,18644
7810,220,18677
7811,94,18680
7812,124,18682
7813,7,18690
7814,49,18716
7815,11,18721
7816,20,18798
7817,72,18893
7818,12,18916
7819,127,18924
7820,65,18929
7821,195,18939
7822,204,18941
7823,138,18979
7824,198,18982
7825,77,19004
7826,30,19015
7827,216,19020
7828,84,19035
7829,82,19063
7830,180,19064
7831,7,19072
7832,127,19089
7833,121,19099
7834,120,19103
7835,137,19114
7836,132,19133
7837,125,19169
7838,124,19195
7839,128,19227
7840,90,52553
7841,21,52558
7842,118,52561
7843,19,52565
7844,101,52566
7845,51,52572
7846,63,52573
7847,6,52574
7848,100,52576
7849,179,52583
7850,65,52585
7851,73,52586
7852,28,52589
7853,94,52602
7854,42,52605
7855,118,52606
7856,96,52612
7857,94,52618
7858,54,52622
7859,63,52624
7860,137,52632
7861,28,52634
7862,120,52638
7863,136,52643
7864,103,52645
7865,135,52650
7866,116,52652
7867,198,52657
7868,216,52660
7869,20,52662
7870,100,52663
7871,80,52665
7872,139,14098
7873,204,14100
7874,3,14107
7875,217,14111
7876,179,14119
7877,14,14126
7878,55,14131
7879,52,14141
7880,98,14142
7881,193,14153
7882,82,14167
7883,73,14175
7884,208,14180
7885,106,14183
7886,128,14200
7887,114,14201
7888,73,14249
7889,4,14257
7890,208,14262
7891,84,14274
7892,118,14275
7893,78,14276
7894,77,14280
7895,82,14294
7896,123,14307
7897,193,14309
7898,119,14313
7899,16,14319
7900,217,14321
7901,113,14337
7902,71,14341
7903,76,14343
7904,0,1037
7905,62,1057
7906,139,1069
7907,101,1072
7908,33,1082
7909,70,1114
7910,135,1144
7911,207,1165
7912,216,1209
7913,14,1293
7914,125,1324
7915,58,1345
7916,96,1366
7917,123,1378
7918,81,1426
7919,207,1431
7920,220,1437
7921,110,1457
7922,94,1474
7923,73,1517
7924,208,1583
7925,198,1607
7926,4,1655
7927,6,1688
7928,4,1697
7929,99,1712
7930,99,1740
7931,87,1798
7932,58,1861
7933,99,1880
7934,3,1918
7935,27,1935
7936,73,34661
7937,217,34662
7938,3,34666
7939,127,34672
7940,51,34676
7941,136,34684
7942,87,34691
7943,0,34693
7944,97,34707
7945,89,34710
7946,41,34712
7947,101,34718
7948,211,34729
7949,114,34734
7950,16,34750
7951,3,34781
7952,32,34788
7953,34,34804
7954,47,34830
7955,111,34834
7956,100,34837
7957,204,34869
7958,123,34879
7959,8,34882
7960,0,34898
7961,99,34902
7962,127,34929
7963,0,34944
7964,35,34946
7965,208,34950
7966,51,34960
7967,220,34961
7968,99,49902
7969,204,49937
7970,212,49962
7971,107,50010
7972,58,50012
7973,73,50042
7974,108,50051
7975,0,50064
7976,67,50076
7977,87,50112
7978,185,50115
7979,48,50123
7980,41,50125
7981,72,50163
7982,58,50189
7983,60,50240
7984,98,50250
7985,125,50270
7986,217,50283
7987,70,50300
7988,98,50327
7989,28,50348
7990,214,50349
7991,123,50396
7992,110,50406
7993,11,50416
7994,193,50443
7995,132,50465
7996,130,50477
7997,116,50508
7998,106,50550
7999,109,50577
8000,23,4828
8001,98,4835
8002,94,4863
8003,24,4911
8004,17,4921
8005,4,4924
8006,12,5106
8007,45,5194
8008,68,5228
8009,141,5230
8010,35,5255
8011,173,5387
8012,220,5438
8013,8,5559
8014,58,5858
8015,52,6466
8016,3,6471
8017,82,6507
8018,19,6508
8019,0,6512
8020,55,6641
8021,6,6856
8022,135,7386
8023,49,9524
8024,185,9854
8025,139,9947
8026,96,9997
8027,62,10114
8028,81,10209
8029,7,10425
8030,139,10427
8031,116,11092
8032,50,50457
8033,97,50458
8034,2,50461
8035,12,50463
8036,81,50469
8037,51,50471
8038,195,50474
8039,19,50478
8040,41,50481
8041,213,50483
8042,179,50493
8043,23,50498
8044,19,50500
8045,4,50501
8046,136,50502
8047,13,50505
8048,209,50507
8049,35,50509
8050,86,50512
8051,66,50513
8052,13,50515
8053,58,50521
8054,87,50523
8055,119,50524
8056,131,50525
8057,11,50527
8058,81,50529
8059,11,50530
8060,131,50541
8061,6,50543
8062,133,50547
8063,198,50548
8064,216,37075
8065,137,37085
8066,6,37086
8067,167,37089
8068,24,37094
8069,62,37095
8070,123,37098
8071,10,37108
8072,138,37135
8073,20,37153
8074,87,37195
8075,220,37206
8076,76,37212
8077,40,37246
8078,71,37248
8079,97,37261
8080,67,37264
8081,114,37267
8082,76,37274
8083,26,37276
8084,86,37278
8085,207,37294
8086,126,37302
8087,163,37349
8088,60,37351
8089,217,37355
8090,70,37365
8091,216,37383
8092,13,37394
8093,42,37427
8094,143,37441
8095,20,37467
8096,46,53018
8097,29,53020
8098,116,53022
8099,70,53023
8100,35,53025
8101,19,53026
8102,21,53027
8103,121,53034
8104,17,53039
8105,141,53040
8106,21,53042
8107,0,53046
8108,127,53056
8109,112,53061
8110,20,53063
8111,2,53064
8112,70,53065
8113,71,53066
8114,124,53068
8115,73,53075
8116,127,53077
8117,106,53080
8118,100,53084
8119,6,53085
8120,60,53090
8121,20,53091
8122,17,53092
8123,119,53097
8124,208,53098
8125,13,53100
8126,124,53101
8127,193,53111
8128,51,10958
8129,8,10961
8130,94,10976
8131,19,11007
8132,72,11009
8133,72,11010
8134,67,11064
8135,220,11066
8136,39,11071
8137,83,11079
8138,66,11113
8139,17,11117
8140,96,11139
8141,12,11159
8142,82,11161
8143,208,11162
8144,193,11176
8145,41,11185
8146,217,11196
8147,134,11199
8148,193,11223
8149,125,11228
8150,14,11231
8151,217,11232
8152,52,11236
8153,47,11287
8154,57,11333
8155,84,11337
8156,137,11342
8157,204,11362
8158,4,11371
8159,55,11375
8160,47,44411
8161,158,44430
8162,42,44442
8163,68,44445
8164,14,44462
8165,16,44484
8166,217,44493
8167,35,44516
8168,65,44519
8169,204,44525
8170,134,44530
8171,79,44532
8172,92,44577
8173,104,44585
8174,118,44600
8175,207,44602
8176,213,44605
8177,43,44618
8178,140,44625
8179,65,44627
8180,113,44652
8181,193,44679
8182,193,44807
8183,6,44820
8184,4,44825
8185,110,44835
8186,32,44840
8187,77,44847
8188,140,44854
8189,0,44889
8190,113,44916
8191,64,44928
8192,207,39937
8193,3,39941
8194,220,40053
8195,47,40065
8196,9,40124
8197,185,40204
8198,64,40267
8199,131,40313
8200,81,40329
8201,119,40332
8202,45,40333
8203,211,40386
8204,34,40411
8205,55,40419
8206,131,40434
8207,213,40453
8208,179,40506
8209,132,40512
8210,19,40563
8211,91,40626
8212,64,40630
8213,78,40688
8214,131,40743
8215,97,40818
8216,208,40842
8217,138,40895
8218,53,40961
8219,76,40993
8220,103,41022
8221,22,41033
8222,104,41048
8223,86,41086
8224,89,19995
8225,130,20541
8226,136,20706
8227,16,20787
8228,106,20831
8229,220,21690
8230,132,21735
8231,198,22164
8232,87,33347
8233,111,34791
8234,167,92
8235,98,111
8236,4,113
8237,207,141
8238,23,154
8239,83,207
8240,137,234
8241,82,256
8242,118,269
8243,35,287
8244,67,348
8245,107,393
8246,94,430
8247,128,444
8248,125,453
8249,78,454
8250,0,470
8251,41,548
8252,62,561
8253,9,574
8254,44,587
8255,115,617
8256,135,1963
8257,137,2170
8258,82,2208
8259,20,2209
8260,35,2370
8261,8,2608
8262,34,2705
8263,68,2815
8264,24,2863
8265,35,2871
8266,31,2874
8267,111,2969
8268,3,3016
8269,81,3080
8270,35,3166
8271,167,3175
8272,81,3219
8273,23,3263
8274,84,3291
8275,131,3408
8276,3,3477
8277,91,3546
8278,137,3591
8279,207,3595
8280,63,3621
8281,118,3672
8282,173,3685
8283,187,3690
8284,99,3818
8285,128,3869
8286,35,3873
8287,209,3907
8288,119,50169
8289,78,50174
8290,99,50178
8291,44,50179
8292,87,50180
8293,118,50181
8294,4,50184
8295,217,50186
8296,193,50188
8297,84,50190
8298,140,50197
8299,57,50199
8300,134,50201
8301,123,50202
8302,78,50203
8303,68,50204
8304,61,50205
8305,128,50206
8306,5,50208
8307,214,50210
8308,61,50214
8309,139,50217
8310,155,50218
8311,12,50222
8312,118,50223
8313,70,50224
8314,135,50226
8315,93,50229
8316,93,50231
8317,109,50234
8318,108,50235
8319,73,50237
8320,140,39305
8321,32,39307
8322,49,39308
8323,120,39325
8324,107,39326
8325,4,39341
8326,68,39344
8327,51,39349
8328,2,39350
8329,43,39353
8330,128,39358
8331,71,39364
8332,97,39368
8333,125,39370
8334,36,39374
8335,40,39379
8336,37,39381
8337,52,39383
8338,107,39385
8339,101,39395
8340,29,39396
8341,137,39405
8342,220,39408
8343,87,39417
8344,8,39421
8345,195,39424
8346,124,39426
8347,213,39428
8348,128,39431
8349,3,39433
8350,35,39435
8351,52,39442
8352,73,177
8353,103,205
8354,34,226
8355,41,235
8356,13,335
8357,0,347
8358,53,354
8359,4,421
8360,106,496
8361,195,542
8362,8,735
8363,85,742
8364,139,804
8365,4,969
8366,135,988
8367,70,1024
8368,59,1033
8369,220,1036
8370,35,1080
8371,76,1098
8372,202,1099
8373,167,1108
8374,71,1116
8375,7,1128
8376,78,1155
8377,212,1163
8378,173,1164
8379,118,1176
8380,64,1203
8381,81,1261
8382,62,1330
8383,16,1350
8384,71,17679
8385,8,17694
8386,82,17698
8387,128,17716
8388,99,17764
8389,13,17766
8390,55,17770
8391,81,17779
8392,78,17786
8393,132,17789
8394,125,17794
8395,204,17803
8396,110,17808
8397,207,17816
8398,109,17826
8399,30,17841
8400,75,17843
8401,70,17857
8402,217,17866
8403,85,17883
8404,17,17889
8405,99,17891
8406,208,17893
8407,17,17960
8408,92,17994
8409,118,17999
8410,37,18002
8411,98,18005
8412,208,18051
8413,27,18059
8414,109,18077
8415,72,18130
8416,198,43280
8417,106,43288
8418,84,43292
8419,87,43293
8420,134,43298
8421,134,43299
8422,12,43301
8423,111,43302
8424,58,43306
8425,31,43310
8426,111,43321
8427,88,43327
8428,107,43335
8429,127,43344
8430,195,43347
8431,40,43350
8432,140,43351
8433,127,43352
8434,72,43353
8435,111,43355
8436,119,43365
8437,113,43372
8438,136,43373
8439,193,43377
8440,117,43381
8441,180,43386
8442,13,43393
8443,101,43397
8444,209,43408
8445,66,43409
8446,139,43410
8447,17,43417
8448,54,15744
8449,111,15767
8450,35,15768
8451,73,15773
8452,68,15792
8453,97,15796
8454,109,15803
8455,82,15804
8456,77,15813
8457,143,15847
8458,13,15848
8459,106,15851
8460,45,15867
8461,115,15893
8462,128,15897
8463,44,15899
8464,216,15929
8465,124,15967
8466,111,15968
8467,139,15980
8468,38,15984
8469,114,16000
8470,108,16003
8471,12,16006
8472,71,16010
8473,35,16018
8474,180,16043
8475,120,16066
8476,76,16076
8477,193,16084
8478,40,16113
8479,62,16120
8480,39,41196
8481,179,41206
8482,136,41207
8483,35,41213
8484,139,41221
8485,19,41227
8486,117,41231
8487,16,41232
8488,64,41233
8489,216,41242
8490,86,41257
8491,137,41261
8492,198,41264
8493,134,41271
8494,217,41277
8495,163,41288
8496,78,41292
8497,44,41293
8498,127,41299
8499,94,41300
8500,127,41303
8501,32,41305
8502,87,41316
8503,204,41319
8504,130,41320
8505,98,41326
8506,204,41330
8507,98,41332
8508,77,41337
8509,77,41338
8510,58,41340
8511,163,41344
8512,97,56295
8513,23,56302
8514,42,56316
8515,73,56317
8516,53,56335
8517,64,56345
8518,60,56346
8519,26,56352
8520,111,56388
8521,108,56410
8522,58,56413
8523,40,56416
8524,62,56452
8525,56,56463
8526,127,56478
8527,129,56497
8528,138,56506
8529,113,56513
8530,6,56521
8531,91,56531
8532,19,56533
8533,8,56544
8534,107,56548
8535,73,56578
8536,51,56581
8537,208,56584
8538,208,56602
8539,20,56615
8540,60,56618
8541,34,56637
8542,63,56645
8543,173,56656
8544,209,33989
8545,12,34049
8546,97,34085
