,partition,vertex
0,4949,13685
1,1824,13686
2,14869,13687
3,12214,13689
4,1831,13690
5,14843,13693
6,4950,13696
7,10650,13698
8,13853,13700
9,12373,13706
10,4951,13709
11,14847,13710
12,2724,13714
13,10607,13716
14,10660,13718
15,12249,13724
16,14825,13727
17,14840,13728
18,4952,13730
19,4953,13731
20,14832,13735
21,14781,13736
22,11779,13739
23,11915,13740
24,14826,13742
25,10616,13744
26,1830,13752
27,2741,13753
28,4954,13757
29,11893,13760
30,14861,13762
31,4955,13763
32,4513,10967
33,2473,10969
34,2491,10970
35,2330,10972
36,2367,10973
37,3568,10974
38,3801,10977
39,4449,10980
40,3556,10994
41,4019,10999
42,350,11006
43,351,11012
44,352,11017
45,2450,11020
46,3569,11022
47,353,11023
48,2452,11024
49,4293,11027
50,4310,11033
51,354,11034
52,355,11035
53,3788,11039
54,3782,11040
55,356,11048
56,4155,11057
57,4112,11064
58,4100,11070
59,357,11078
60,358,11079
61,359,11080
62,360,11084
63,3680,11085
64,3837,42903
65,1469,42909
66,8795,42912
67,4418,42913
68,11946,42918
69,5000,42924
70,11947,42925
71,8804,42932
72,8805,42937
73,8808,42939
74,8806,42944
75,2481,42945
76,8801,42948
77,4408,42950
78,4405,42952
79,8811,42956
80,1479,42957
81,8798,42959
82,1331,42960
83,5464,42961
84,779,42962
85,8812,42964
86,11948,42967
87,134,42970
88,5458,42972
89,2288,42976
90,8814,42980
91,11949,42984
92,11950,42995
93,3963,42996
94,4447,42998
95,11951,42999
96,7395,33449
97,7396,33450
98,7397,33451
99,3109,33452
100,7398,33455
101,12909,33460
102,12910,33463
103,7399,33464
104,7400,33466
105,1622,33469
106,3113,33472
107,11241,33478
108,2972,33481
109,10992,33482
110,7401,33489
111,7402,33490
112,7403,33491
113,7404,33497
114,16685,33498
115,1594,33500
116,706,33501
117,16615,33504
118,3111,33505
119,11006,33513
120,10993,33514
121,7405,33515
122,16716,33517
123,7406,33518
124,7407,33521
125,16795,33524
126,2945,33526
127,2947,33530
128,10240,18332
129,1304,18338
130,2012,18339
131,2015,18350
132,9731,18355
133,11667,18359
134,5355,18361
135,11935,18363
136,9622,18366
137,10279,18369
138,12968,18372
139,5356,18378
140,10386,18382
141,871,18384
142,15824,18386
143,10264,18387
144,5357,18391
145,1295,18396
146,9927,18401
147,11756,18403
148,9910,18405
149,5358,18408
150,14,18409
151,5359,18413
152,2105,18414
153,13547,18415
154,523,18419
155,12189,18424
156,1076,18428
157,16147,18429
158,5360,18432
159,15712,18433
160,1147,2929
161,1148,2930
162,4006,2932
163,1149,2934
164,4008,2940
165,1146,2941
166,1144,2943
167,3971,2944
168,1155,2946
169,4007,2947
170,3998,2948
171,4001,2949
172,82,2950
173,1197,2951
174,3276,2952
175,1203,2953
176,1286,2954
177,1287,2955
178,1187,2956
179,1188,2957
180,83,2958
181,3974,2961
182,3205,2962
183,3204,2963
184,1189,2964
185,3210,2966
186,1190,2967
187,3956,2970
188,4339,2974
189,3298,2975
190,3967,2983
191,1191,2985
192,1981,18537
193,1177,18539
194,5371,18545
195,5372,18546
196,5373,18547
197,10253,18549
198,5374,18550
199,12260,18553
200,11581,18554
201,5375,18556
202,5376,18558
203,13501,18560
204,11702,18563
205,5377,18564
206,15923,18566
207,1502,18570
208,1501,18577
209,13908,18578
210,15778,18579
211,9700,18582
212,5378,18590
213,11645,18592
214,10251,18593
215,5379,18594
216,15542,18597
217,13503,18599
218,9898,18600
219,5380,18603
220,5381,18605
221,1179,18607
222,1176,18616
223,5382,18617
224,11221,35647
225,7612,35648
226,11222,35650
227,11223,35652
228,11224,35653
229,2618,35659
230,2572,35662
231,1570,35663
232,7717,35672
233,2630,35675
234,11225,35677
235,7721,35678
236,2631,35681
237,7722,35683
238,2628,35685
239,7720,35686
240,397,35694
241,4877,35697
242,7725,35700
243,1559,35707
244,4888,35708
245,7727,35713
246,7729,35717
247,4833,35718
248,11226,35719
249,7724,35721
250,2557,35723
251,11227,35726
252,11228,35727
253,11229,35729
254,4326,35733
255,7731,35735
256,7704,13522
257,7706,13524
258,6975,13525
259,7703,13528
260,2768,13529
261,435,13530
262,6976,13533
263,2769,13536
264,2770,13539
265,2771,13540
266,7676,13549
267,2772,13550
268,2773,13551
269,7674,13552
270,2774,13557
271,298,13558
272,6974,13561
273,2775,13563
274,2776,13565
275,9219,13566
276,2777,13567
277,2778,13569
278,2779,13570
279,2780,13571
280,9143,13575
281,8706,13576
282,248,13577
283,386,13578
284,8693,13579
285,9133,13580
286,421,13582
287,416,13585
288,14001,51575
289,7477,51576
290,8609,51577
291,14002,51578
292,14003,51582
293,14004,51583
294,14005,51587
295,14006,51588
296,14007,51590
297,14008,51591
298,14009,51592
299,605,51594
300,14010,51595
301,308,51596
302,14011,51597
303,14012,51599
304,14013,51602
305,14014,51604
306,14015,51606
307,14016,51609
308,14017,51611
309,14018,51613
310,2115,51614
311,14019,51615
312,14020,51616
313,14021,51617
314,14022,51618
315,2902,51622
316,143,51624
317,14023,51625
318,14024,51626
319,2543,51627
320,3749,18689
321,3750,18692
322,8405,18695
323,3751,18696
324,8404,18697
325,3752,18704
326,3753,18705
327,8392,18706
328,6347,18707
329,17,18710
330,6348,18711
331,3754,18712
332,8389,18716
333,8280,18728
334,8300,18730
335,8370,18733
336,3755,18734
337,6346,18739
338,8368,18740
339,8877,18743
340,6359,18745
341,3756,18746
342,3757,18748
343,3758,18751
344,5914,18754
345,3759,18755
346,8895,18757
347,7890,18759
348,8222,18760
349,8383,18761
350,8384,18763
351,3760,18770
352,186,12900
353,5586,12903
354,2653,12904
355,5568,12910
356,2654,12918
357,199,12922
358,4983,12925
359,9308,12927
360,2655,12930
361,2656,12935
362,7670,12938
363,2657,12939
364,2658,12942
365,2659,12947
366,397,12949
367,5686,12950
368,9000,12951
369,7010,12956
370,2660,12958
371,2661,12959
372,9437,12960
373,5697,12961
374,2662,12963
375,2663,12967
376,2664,12968
377,6917,12970
378,9042,12971
379,2665,12973
380,9213,12977
381,389,12978
382,425,12979
383,9005,12981
384,6873,29738
385,2697,29739
386,2695,29740
387,10602,29743
388,6874,29744
389,6875,29748
390,2690,29752
391,13735,29754
392,1783,29756
393,10604,29757
394,14696,29760
395,4228,29767
396,10633,29770
397,1808,29773
398,10608,29778
399,6876,29779
400,10610,29782
401,2764,29784
402,6877,29786
403,6878,29789
404,2803,29790
405,14862,29792
406,2766,29793
407,2754,29794
408,6879,29798
409,2804,29800
410,6880,29805
411,13873,29806
412,2101,29809
413,6881,29810
414,13846,29813
415,6882,29814
416,10037,24113
417,5568,24115
418,10038,24116
419,6063,24117
420,6072,24118
421,6050,24119
422,3430,24120
423,6042,24122
424,10039,24128
425,4123,24130
426,6076,24132
427,5131,24134
428,10040,24136
429,10041,24142
430,10042,24144
431,1509,24145
432,1726,24147
433,6074,24148
434,10043,24153
435,10044,24156
436,4084,24159
437,6075,24160
438,10045,24163
439,10046,24164
440,140,24170
441,5133,24171
442,4126,24172
443,10047,24176
444,1968,24180
445,6083,24182
446,6084,24184
447,1508,24185
448,12233,45659
449,4322,45661
450,4052,45662
451,4015,45664
452,14694,45665
453,2154,45666
454,9179,45667
455,12238,45668
456,9180,45671
457,12228,45672
458,9181,45673
459,14700,45677
460,1384,45678
461,9182,45682
462,13198,45683
463,12237,45689
464,9183,45690
465,9184,45692
466,12232,45693
467,9185,45696
468,9186,45697
469,4027,45698
470,12253,45699
471,14689,45700
472,9187,45703
473,15172,45704
474,14691,45706
475,9188,45707
476,15171,45708
477,9189,45710
478,9190,45712
479,9191,45713
480,12828,48407
481,12833,48408
482,9416,48414
483,12839,48415
484,12836,48420
485,12834,48432
486,12853,48446
487,12851,48461
488,13625,48490
489,12861,48494
490,12921,48516
491,12869,48519
492,12872,48523
493,12896,48541
494,9417,48543
495,12878,48546
496,12895,48548
497,12894,48568
498,3022,48569
499,12900,48589
500,465,48590
501,12913,48592
502,12912,48597
503,9418,48598
504,12923,48604
505,12904,48612
506,12982,48634
507,12917,48641
508,9419,48649
509,12922,48658
510,464,48662
511,12924,48663
512,2180,10095
513,8720,10098
514,2181,10102
515,9058,10104
516,4760,10105
517,8527,10106
518,2182,10111
519,7274,10112
520,9224,10118
521,2183,10119
522,2184,10120
523,149,10121
524,4886,10122
525,5793,10130
526,7586,10133
527,8557,10134
528,7264,10140
529,7265,10142
530,5808,10147
531,2185,10148
532,8558,10149
533,64,10155
534,7569,10160
535,8779,10162
536,4883,10167
537,2186,10169
538,6031,10173
539,4787,10175
540,2187,10176
541,2188,10177
542,5046,10179
543,2189,10186
544,13079,25071
545,6202,25073
546,6203,25074
547,16579,25075
548,483,25076
549,1244,25079
550,10141,25080
551,6204,25081
552,6205,25084
553,10168,25085
554,1248,25087
555,16552,25088
556,10143,25091
557,87,25092
558,479,25094
559,522,25096
560,10144,25097
561,6206,25101
562,10184,25102
563,3684,25104
564,108,25109
565,16507,25110
566,6207,25111
567,10163,25112
568,13117,25113
569,16427,25115
570,16537,25116
571,498,25120
572,16244,25122
573,6208,25124
574,488,25128
575,6209,25131
576,9211,12985
577,9006,12987
578,5562,12989
579,2666,12992
580,2667,12994
581,9203,12995
582,6901,12997
583,2668,13000
584,2669,13001
585,2670,13002
586,2671,13003
587,2672,13007
588,5640,13010
589,2673,13012
590,2674,13013
591,6977,13014
592,398,13017
593,2675,13018
594,6933,13019
595,2676,13020
596,2677,13021
597,6748,13024
598,2678,13025
599,2679,13027
600,2680,13033
601,9033,13035
602,5713,13036
603,9035,13038
604,8521,13042
605,5715,13049
606,6858,13055
607,2681,13060
608,7286,32709
609,7285,32711
610,925,32714
611,10920,32715
612,10921,32718
613,4241,32721
614,7288,32722
615,7289,32725
616,10922,32726
617,2145,32729
618,4638,32730
619,2052,32731
620,325,32734
621,4269,32735
622,4263,32736
623,2819,32738
624,10923,32739
625,924,32742
626,5602,32744
627,10924,32745
628,10925,32748
629,7292,32755
630,4606,32756
631,7294,32758
632,10926,32761
633,3565,32771
634,7293,32774
635,7297,32775
636,10927,32776
637,10928,32780
638,7298,32781
639,10929,32784
640,14164,52019
641,5570,52020
642,4076,52021
643,14165,52022
644,14166,52023
645,14167,52027
646,9093,52029
647,14168,52030
648,14169,52033
649,14170,52034
650,14171,52035
651,9091,52036
652,14172,52037
653,14173,52039
654,14174,52042
655,259,52044
656,14175,52045
657,14176,52047
658,14177,52048
659,5715,52051
660,2671,52052
661,14178,52053
662,4849,52054
663,14179,52056
664,14180,52060
665,2719,52061
666,14181,52062
667,2736,52064
668,14182,52065
669,14183,52068
670,14184,52069
671,231,52071
672,4009,27670
673,1218,27671
674,10399,27673
675,1231,27674
676,6571,27678
677,1233,27682
678,3975,27684
679,10400,27686
680,5143,27691
681,4191,27693
682,520,27696
683,6573,27697
684,10401,27698
685,10402,27700
686,6562,27701
687,10403,27711
688,10404,27712
689,1047,27713
690,3463,27716
691,3462,27718
692,3335,27720
693,1139,27722
694,3647,27725
695,3438,27727
696,10405,27729
697,6574,27733
698,6575,27734
699,6578,27747
700,6576,27750
701,6579,27751
702,3526,27752
703,10406,27753
704,3266,15865
705,6474,15867
706,6075,15869
707,8104,15874
708,5489,15875
709,5997,15879
710,8105,15890
711,5959,15893
712,7314,15896
713,8192,15899
714,3267,15900
715,3268,15905
716,9455,15906
717,6521,15907
718,5936,15908
719,3269,15911
720,5255,15915
721,3270,15917
722,3271,15919
723,3272,15920
724,6624,15928
725,6007,15932
726,7550,15934
727,6592,15938
728,171,15941
729,157,15954
730,8833,15956
731,5326,15957
732,3273,15970
733,287,15971
734,3274,15973
735,78,15975
736,15302,43771
737,8925,43773
738,12030,43774
739,12028,43775
740,4451,43776
741,12041,43777
742,8926,43778
743,8927,43779
744,2550,43782
745,768,43784
746,12714,43787
747,8928,43789
748,8929,43791
749,12037,43797
750,14901,43799
751,8930,43800
752,12031,43803
753,8931,43810
754,14904,43811
755,1344,43813
756,381,43820
757,8932,43821
758,15308,43822
759,555,43827
760,12802,43828
761,15396,43829
762,13516,43830
763,15394,43831
764,8933,43833
765,1484,43835
766,8934,43839
767,3294,43840
768,14820,29892
769,13850,29895
770,4230,29897
771,2798,29898
772,2660,29899
773,10618,29902
774,6895,29903
775,6896,29906
776,2795,29907
777,2792,29910
778,6897,29911
779,2683,29917
780,2793,29918
781,6898,29920
782,10623,29921
783,2773,29922
784,10619,29923
785,6899,29925
786,14706,29926
787,10620,29928
788,13772,29930
789,6900,29931
790,14746,29932
791,14748,29933
792,2809,29934
793,14753,29935
794,2807,29936
795,6901,29938
796,4088,29942
797,14749,29948
798,6902,29950
799,14743,29951
800,1531,5777
801,5057,5778
802,7599,5781
803,1532,5782
804,5055,5783
805,1533,5784
806,7595,5785
807,7592,5786
808,7590,5787
809,6738,5790
810,1534,5791
811,6740,5792
812,1535,5795
813,6756,5797
814,7663,5800
815,5052,5801
816,4867,5803
817,7651,5807
818,4865,5808
819,6763,5817
820,4868,5820
821,9447,5825
822,1536,5829
823,7610,5835
824,7606,5842
825,7614,5846
826,1537,5849
827,1538,5850
828,1539,5852
829,7624,5855
830,1540,5856
831,4890,5859
832,6337,57075
833,16082,57076
834,16083,57077
835,16084,57081
836,16085,57082
837,6384,57084
838,16086,57087
839,16087,57088
840,16088,57090
841,579,57092
842,16089,57094
843,873,57095
844,16090,57096
845,872,57097
846,16091,57098
847,16092,57100
848,16093,57101
849,9470,57102
850,16094,57106
851,16095,57108
852,16096,57109
853,356,57110
854,4404,57111
855,16097,57112
856,16098,57113
857,875,57114
858,9476,57116
859,4165,57118
860,4701,57120
861,16099,57123
862,16100,57124
863,909,57129
864,6688,28486
865,4202,28505
866,527,28571
867,6699,28586
868,6705,28628
869,4203,28656
870,4204,28690
871,669,28692
872,668,28723
873,4205,28746
874,4206,28748
875,4207,28756
876,4208,28758
877,4209,28780
878,4210,28784
879,4211,28815
880,6732,28820
881,4212,28872
882,671,28891
883,4213,28912
884,4214,28929
885,6897,28935
886,415,28946
887,4215,28967
888,4216,28975
889,672,28976
890,4217,28986
891,4218,29000
892,670,29023
893,4219,29110
894,211,29129
895,4220,29144
896,12052,44059
897,15729,44063
898,8964,44065
899,1333,44066
900,8965,44067
901,15726,44070
902,13478,44071
903,3897,44074
904,13502,44075
905,8966,44077
906,15727,44080
907,15732,44083
908,15731,44087
909,15082,44089
910,8967,44091
911,3330,44092
912,1332,44093
913,13453,44095
914,4448,44097
915,2256,44099
916,2479,44101
917,15657,44103
918,13495,44104
919,359,44107
920,2040,44108
921,8968,44109
922,15654,44111
923,2148,44116
924,8969,44120
925,8970,44122
926,15615,44123
927,15613,44124
928,11709,19543
929,15692,19545
930,5467,19547
931,5468,19549
932,11283,19550
933,10289,19552
934,5469,19554
935,5470,19555
936,15868,19559
937,2116,19561
938,11392,19565
939,10121,19566
940,10112,19567
941,1204,19572
942,15592,19575
943,5471,19579
944,5472,19580
945,5473,19581
946,11976,19585
947,10114,19586
948,1411,19588
949,2287,19593
950,5474,19596
951,15889,19606
952,1209,19607
953,2096,19610
954,10120,19613
955,15606,19618
956,15883,19619
957,14016,19625
958,5475,19631
959,5476,19635
960,634,56702
961,15955,56709
962,15957,56714
963,16093,56725
964,15970,56730
965,15960,56731
966,15962,56738
967,746,56739
968,15964,56741
969,15965,56744
970,15969,56749
971,15978,56761
972,15972,56765
973,15974,56771
974,15982,56779
975,361,56783
976,15983,56785
977,9472,56802
978,646,56806
979,15992,56820
980,16000,56830
981,808,56834
982,15994,56835
983,15996,56841
984,15998,56842
985,15997,56843
986,16002,56853
987,16005,56861
988,16130,56866
989,16009,56880
990,9473,56885
991,16046,56886
992,13461,23135
993,12406,23138
994,5927,23139
995,5928,23140
996,13460,23145
997,236,23150
998,5929,23152
999,5930,23153
1000,4117,23158
1001,237,23159
1002,5931,23165
1003,3262,23169
1004,10002,23170
1005,5932,23171
1006,2823,23172
1007,5933,23173
1008,14430,23178
1009,320,23181
1010,3643,23182
1011,9939,23183
1012,5934,23184
1013,3041,23185
1014,14949,23186
1015,5935,23189
1016,9938,23190
1017,14443,23197
1018,4119,23202
1019,5936,23204
1020,14957,23209
1021,176,23210
1022,14935,23211
1023,9944,23213
1024,5310,17825
1025,1395,17827
1026,5311,17829
1027,14887,17831
1028,1445,17833
1029,14888,17834
1030,12467,17837
1031,11791,17853
1032,16361,17854
1033,1518,17855
1034,12349,17856
1035,15297,17857
1036,3420,17858
1037,5312,17861
1038,12750,17862
1039,10405,17866
1040,12385,17867
1041,1429,17873
1042,9653,17877
1043,13789,17878
1044,10473,17879
1045,3206,17880
1046,5313,17882
1047,1068,17887
1048,5314,17888
1049,3625,17890
1050,5315,17892
1051,5316,17893
1052,1433,17902
1053,9935,17904
1054,5317,17913
1055,96,17918
1056,14510,30581
1057,2597,30588
1058,10688,30590
1059,6997,30594
1060,6998,30596
1061,6999,30599
1062,7000,30601
1063,14513,30603
1064,7001,30609
1065,14792,30612
1066,7002,30613
1067,2662,30616
1068,7003,30619
1069,7004,30621
1070,14810,30623
1071,7005,30626
1072,7006,30628
1073,14807,30629
1074,2664,30630
1075,7007,30631
1076,2669,30632
1077,14806,30634
1078,14802,30637
1079,408,30638
1080,14803,30639
1081,14809,30643
1082,2573,30644
1083,10695,30646
1084,10694,30647
1085,7008,30649
1086,7009,30653
1087,14793,30654
1088,5113,15549
1089,1249,15550
1090,16264,15560
1091,14883,15562
1092,5114,15564
1093,14909,15566
1094,12166,15570
1095,5115,15571
1096,5116,15575
1097,5117,15578
1098,5118,15585
1099,5119,15586
1100,1132,15589
1101,10290,15596
1102,86,15597
1103,1252,15602
1104,11366,15604
1105,5120,15606
1106,1119,15608
1107,10188,15610
1108,9585,15614
1109,10179,15618
1110,13956,15622
1111,16592,15633
1112,13143,15634
1113,10138,15637
1114,16515,15643
1115,5121,15646
1116,16516,15650
1117,1443,15654
1118,1446,15666
1119,1487,15667
1120,2333,11112
1121,2334,11114
1122,2335,11116
1123,2336,11117
1124,4802,11119
1125,2337,11120
1126,7646,11122
1127,2338,11123
1128,5872,11130
1129,5869,11133
1130,6409,11135
1131,2339,11136
1132,6400,11138
1133,9468,11141
1134,2340,11142
1135,2341,11143
1136,8982,11146
1137,2342,11147
1138,2343,11148
1139,4746,11151
1140,2344,11154
1141,289,11156
1142,2345,11159
1143,2346,11161
1144,2347,11167
1145,8924,11169
1146,2348,11170
1147,5403,11172
1148,5833,11173
1149,2349,11174
1150,2350,11175
1151,2351,11178
1152,13133,46460
1153,2639,46461
1154,12307,46462
1155,3419,46466
1156,12302,46470
1157,3592,46471
1158,9308,46473
1159,15206,46474
1160,9309,46476
1161,15201,46477
1162,217,46478
1163,1763,46483
1164,15200,46484
1165,2637,46494
1166,9310,46496
1167,12305,46497
1168,4445,46499
1169,15196,46502
1170,1760,46505
1171,9311,46507
1172,4501,46508
1173,9312,46509
1174,9313,46510
1175,9314,46512
1176,14385,46513
1177,2951,46521
1178,9315,46525
1179,9316,46530
1180,9317,46534
1181,9318,46540
1182,14356,46542
1183,9319,46546
1184,972,32896
1185,10938,32897
1186,10939,32899
1187,2241,32900
1188,5132,32908
1189,974,32911
1190,7316,32914
1191,973,32927
1192,7304,32929
1193,10940,32933
1194,3283,32934
1195,2173,32936
1196,7320,32941
1197,1882,32942
1198,7321,32946
1199,2186,32954
1200,10941,32956
1201,2165,32959
1202,7325,32964
1203,4656,32967
1204,7323,32969
1205,7326,32972
1206,4646,32975
1207,4644,32976
1208,7327,32978
1209,7322,32979
1210,2198,32982
1211,60,32987
1212,10942,32988
1213,7328,32993
1214,7331,32996
1215,2170,32998
1216,5713,21581
1217,5644,21582
1218,3461,21583
1219,5653,21585
1220,5714,21591
1221,9769,21592
1222,298,21593
1223,9770,21594
1224,3996,21596
1225,5717,21598
1226,1920,21605
1227,5699,21606
1228,9771,21607
1229,5571,21609
1230,5712,21611
1231,5313,21618
1232,9772,21619
1233,2668,21620
1234,9773,21621
1235,5684,21626
1236,5685,21628
1237,2099,21631
1238,9774,21634
1239,417,21636
1240,1418,21637
1241,5683,21638
1242,9775,21640
1243,5711,21642
1244,9776,21644
1245,9777,21646
1246,5719,21647
1247,9778,21649
1248,9271,46262
1249,1888,46263
1250,12690,46264
1251,3534,46266
1252,14043,46270
1253,4497,46271
1254,12284,46272
1255,3116,46275
1256,9272,46276
1257,14042,46277
1258,4498,46278
1259,14037,46279
1260,2869,46280
1261,14036,46281
1262,12285,46283
1263,2868,46287
1264,2867,46291
1265,1734,46293
1266,9273,46294
1267,9274,46298
1268,14035,46301
1269,9275,46303
1270,2543,46304
1271,9276,46305
1272,12891,46306
1273,12286,46307
1274,1914,46309
1275,12287,46310
1276,9277,46312
1277,12892,46320
1278,12347,46321
1279,12668,46323
1280,11367,37188
1281,7970,37190
1282,3223,37193
1283,7971,37195
1284,4346,37197
1285,101,37198
1286,1050,37199
1287,1255,37205
1288,3582,37207
1289,7972,37211
1290,16500,37214
1291,12486,37215
1292,3476,37216
1293,16495,37223
1294,7973,37226
1295,11379,37227
1296,1266,37228
1297,7974,37229
1298,3491,37234
1299,3381,37236
1300,7975,37237
1301,11370,37238
1302,16588,37242
1303,11373,37243
1304,11371,37244
1305,7976,37248
1306,3380,37249
1307,7977,37252
1308,3378,37255
1309,11380,37257
1310,7978,37259
1311,4341,37263
1312,6766,29130
1313,2910,29133
1314,6767,29135
1315,16972,29138
1316,6768,29141
1317,6769,29143
1318,6770,29148
1319,3106,29150
1320,10555,29152
1321,16963,29153
1322,6771,29157
1323,6772,29163
1324,16997,29164
1325,12971,29168
1326,6773,29170
1327,16999,29174
1328,4221,29176
1329,4220,29181
1330,1620,29184
1331,16986,29185
1332,6774,29189
1333,6775,29191
1334,16974,29193
1335,3112,29194
1336,6776,29198
1337,6777,29200
1338,6778,29206
1339,12997,29207
1340,6779,29209
1341,6780,29211
1342,6781,29213
1343,6782,29215
1344,2791,13680
1345,2792,13682
1346,305,13688
1347,2793,13694
1348,6760,13695
1349,9064,13697
1350,6888,13699
1351,6751,13702
1352,8738,13703
1353,2794,13704
1354,2795,13707
1355,9173,13708
1356,2796,13711
1357,391,13712
1358,8751,13715
1359,2797,13717
1360,2798,13719
1361,2799,13720
1362,2800,13721
1363,432,13722
1364,8744,13723
1365,6906,13725
1366,9127,13726
1367,2801,13729
1368,2802,13732
1369,406,13734
1370,9113,13737
1371,2803,13741
1372,9123,13743
1373,9117,13745
1374,2804,13746
1375,6908,13747
1376,8824,43027
1377,8825,43028
1378,13677,43029
1379,11959,43030
1380,1329,43031
1381,8826,43032
1382,15700,43036
1383,1328,43037
1384,13684,43038
1385,8827,43039
1386,8828,43041
1387,125,43044
1388,8829,43045
1389,3962,43048
1390,15693,43053
1391,8830,43055
1392,11960,43058
1393,8831,43059
1394,11962,43064
1395,1330,43066
1396,4452,43069
1397,8832,43072
1398,15537,43077
1399,11963,43080
1400,8833,43081
1401,8834,43082
1402,15026,43087
1403,13647,43090
1404,3281,43095
1405,15608,43097
1406,11966,43098
1407,2300,43101
1408,4918,44516
1409,12102,44517
1410,12103,44518
1411,2707,44519
1412,9020,44531
1413,12104,44537
1414,9022,44539
1415,2702,44540
1416,9023,44542
1417,9004,44543
1418,12105,44544
1419,12106,44545
1420,2095,44546
1421,9024,44550
1422,9018,44551
1423,5064,44559
1424,9015,44562
1425,2068,44568
1426,9026,44569
1427,9016,44570
1428,12107,44580
1429,9032,44582
1430,9030,44583
1431,12108,44588
1432,9033,44590
1433,2591,44592
1434,3904,44594
1435,2676,44603
1436,12109,44609
1437,9036,44612
1438,12110,44615
1439,12111,44616
1440,7080,10735
1441,7088,10740
1442,2282,10742
1443,2283,10743
1444,7589,10755
1445,2284,10759
1446,2285,10760
1447,7093,10769
1448,2286,10771
1449,7090,10772
1450,4810,10773
1451,2287,10777
1452,2288,10779
1453,5416,10781
1454,2289,10786
1455,2290,10793
1456,2291,10796
1457,2292,10797
1458,2293,10798
1459,5844,10799
1460,7084,10801
1461,7605,10806
1462,8220,10808
1463,7717,10809
1464,2294,10811
1465,5,10813
1466,9473,10814
1467,2295,10816
1468,2296,10817
1469,2297,10820
1470,134,10828
1471,6693,10829
1472,1695,21029
1473,14113,21030
1474,14112,21034
1475,5633,21035
1476,9715,21037
1477,5634,21038
1478,15125,21039
1479,600,21040
1480,9740,21043
1481,9739,21044
1482,5635,21045
1483,5636,21046
1484,3983,21047
1485,330,21048
1486,2576,21049
1487,299,21050
1488,5637,21051
1489,14011,21053
1490,9932,21054
1491,2719,21055
1492,9980,21056
1493,5638,21057
1494,5639,21059
1495,5640,21061
1496,5641,21064
1497,5642,21066
1498,2713,21068
1499,5643,21070
1500,5644,21079
1501,5645,21081
1502,1389,21083
1503,12703,21084
1504,5242,5432
1505,8824,5434
1506,1469,5436
1507,1470,5440
1508,8796,5441
1509,5979,5442
1510,1471,5444
1511,1472,5445
1512,1473,5446
1513,8835,5447
1514,8847,5450
1515,6006,5451
1516,8841,5452
1517,1474,5455
1518,8881,5456
1519,5504,5459
1520,8887,5462
1521,6020,5464
1522,161,5465
1523,8837,5466
1524,6022,5467
1525,1475,5469
1526,1476,5470
1527,1477,5471
1528,5500,5472
1529,1478,5473
1530,1479,5474
1531,8889,5475
1532,5693,5478
1533,1480,5479
1534,1481,5480
1535,8915,5481
1536,5202,16668
1537,11654,16672
1538,12472,16678
1539,15616,16682
1540,5203,16684
1541,5204,16687
1542,5205,16689
1543,1142,16692
1544,5206,16694
1545,12100,16697
1546,1104,16700
1547,15081,16701
1548,9744,16706
1549,5207,16708
1550,13067,16710
1551,11030,16711
1552,12488,16715
1553,1264,16718
1554,11028,16720
1555,5208,16721
1556,5209,16722
1557,11663,16724
1558,12101,16725
1559,15061,16728
1560,1256,16731
1561,10029,16732
1562,11026,16734
1563,3200,16735
1564,16468,16740
1565,1887,16741
1566,10283,16742
1567,5210,16745
1568,6697,28588
1569,6698,28590
1570,12429,28591
1571,12394,28592
1572,13867,28595
1573,6699,28598
1574,13869,28599
1575,13870,28602
1576,12513,28604
1577,1944,28611
1578,6700,28612
1579,1943,28614
1580,6701,28615
1581,6702,28617
1582,6703,28620
1583,6704,28626
1584,6705,28629
1585,6706,28631
1586,6707,28633
1587,3095,28634
1588,10515,28637
1589,6708,28640
1590,1940,28641
1591,3050,28642
1592,3036,28644
1593,3037,28648
1594,10508,28649
1595,3099,28651
1596,10509,28659
1597,3042,28661
1598,12899,28663
1599,12908,28668
1600,7772,35949
1601,16964,35951
1602,7773,35952
1603,11252,35953
1604,16971,35958
1605,11254,35961
1606,7774,35962
1607,16969,35967
1608,4330,35969
1609,16967,35971
1610,2948,35973
1611,7775,35976
1612,1870,35978
1613,3759,35979
1614,16976,35980
1615,7776,35984
1616,1688,35986
1617,7777,35987
1618,7778,35988
1619,7779,35990
1620,7780,35991
1621,12953,35992
1622,4303,35994
1623,16982,35999
1624,3018,36000
1625,16981,36001
1626,4329,36003
1627,16973,36004
1628,12964,36005
1629,7781,36007
1630,11257,36011
1631,11259,36013
1632,4449,48234
1633,12753,48237
1634,1020,48238
1635,12754,48243
1636,12755,48245
1637,79,48246
1638,12756,48247
1639,12757,48249
1640,3471,48250
1641,12758,48251
1642,12759,48253
1643,9385,48255
1644,543,48256
1645,12760,48257
1646,4396,48258
1647,12761,48260
1648,609,48261
1649,12762,48262
1650,8769,48264
1651,12763,48265
1652,12764,48266
1653,66,48267
1654,12765,48268
1655,12766,48269
1656,12767,48270
1657,12768,48273
1658,12769,48275
1659,12770,48276
1660,12771,48277
1661,12772,48278
1662,3282,48280
1663,12773,48282
1664,6755,29476
1665,6825,29477
1666,10577,29478
1667,3131,29479
1668,10578,29483
1669,6828,29484
1670,6831,29493
1671,6833,29497
1672,10579,29499
1673,6832,29501
1674,10580,29502
1675,6834,29503
1676,5037,29504
1677,6835,29506
1678,10581,29508
1679,3187,29511
1680,5086,29513
1681,1669,29519
1682,3169,29521
1683,10582,29522
1684,6836,29526
1685,3000,29536
1686,10583,29538
1687,10584,29540
1688,6837,29544
1689,5076,29547
1690,6840,29548
1691,3013,29550
1692,2994,29556
1693,6842,29557
1694,4207,29559
1695,6843,29561
1696,8374,40011
1697,1179,40013
1698,11656,40014
1699,1178,40017
1700,8380,40019
1701,3732,40020
1702,8378,40026
1703,11657,40027
1704,4061,40030
1705,3765,40033
1706,11658,40042
1707,8372,40043
1708,11659,40048
1709,3702,40049
1710,865,40051
1711,5352,40052
1712,3994,40053
1713,11660,40055
1714,11661,40057
1715,11662,40062
1716,5349,40063
1717,11663,40067
1718,8383,40069
1719,11664,40070
1720,11665,40074
1721,11666,40075
1722,1107,40083
1723,8386,40084
1724,11667,40087
1725,11668,40088
1726,3704,40092
1727,860,40096
1728,5998,23609
1729,9981,23610
1730,9982,23611
1731,9983,23614
1732,4083,23618
1733,1761,23619
1734,9984,23620
1735,5997,23622
1736,2903,23623
1737,5999,23625
1738,9985,23626
1739,2991,23628
1740,9986,23631
1741,9987,23634
1742,6000,23636
1743,5679,23638
1744,2990,23640
1745,9988,23641
1746,1474,23643
1747,5573,23645
1748,9989,23654
1749,5718,23655
1750,2603,23659
1751,6003,23660
1752,6004,23662
1753,9990,23663
1754,6005,23668
1755,6001,23669
1756,6006,23671
1757,9991,23672
1758,9992,23675
1759,6007,23676
1760,15688,56005
1761,15686,56006
1762,15685,56009
1763,15689,56016
1764,15691,56018
1765,116,56020
1766,15718,56036
1767,15697,56037
1768,15702,56043
1769,15709,56053
1770,807,56075
1771,15714,56078
1772,122,56104
1773,15728,56106
1774,15733,56115
1775,15736,56125
1776,15745,56144
1777,15748,56149
1778,15744,56150
1779,15752,56164
1780,15755,56168
1781,15757,56171
1782,15763,56187
1783,571,56190
1784,15769,56204
1785,15774,56213
1786,15777,56219
1787,15792,56230
1788,15780,56232
1789,15784,56238
1790,15785,56240
1791,15787,56243
1792,13841,42594
1793,3021,42595
1794,8746,42596
1795,3397,42597
1796,8747,42598
1797,1772,42599
1798,2796,42600
1799,1771,42602
1800,8748,42603
1801,14258,42606
1802,1770,42608
1803,8749,42612
1804,8750,42615
1805,4433,42618
1806,14247,42620
1807,14257,42622
1808,14260,42623
1809,14936,42627
1810,8751,42631
1811,2196,42632
1812,11921,42634
1813,8752,42635
1814,14253,42640
1815,8753,42641
1816,14262,42647
1817,14434,42648
1818,8754,42649
1819,13936,42650
1820,15317,42651
1821,8755,42652
1822,2291,42653
1823,11926,42656
1824,9779,21651
1825,4090,21654
1826,5707,21655
1827,9780,21663
1828,9781,21665
1829,3629,21671
1830,3620,21672
1831,2832,21673
1832,4010,21674
1833,3138,21681
1834,9782,21682
1835,5484,21692
1836,2133,21697
1837,5486,21699
1838,5726,21701
1839,5727,21706
1840,9783,21712
1841,169,21720
1842,1340,21721
1843,2169,21725
1844,9784,21728
1845,5494,21730
1846,4097,21736
1847,5732,21738
1848,4749,21739
1849,9785,21740
1850,1958,21741
1851,9786,21744
1852,9787,21746
1853,5730,21747
1854,9788,21750
1855,9789,21752
1856,9294,46395
1857,2896,46403
1858,15294,46404
1859,394,46405
1860,9295,46406
1861,9296,46408
1862,796,46409
1863,12680,46411
1864,797,46412
1865,2898,46413
1866,9297,46415
1867,12859,46418
1868,9298,46420
1869,9299,46422
1870,14108,46424
1871,9300,46425
1872,14105,46426
1873,15293,46427
1874,9301,46428
1875,9302,46431
1876,9303,46432
1877,12297,46435
1878,2895,46436
1879,12351,46437
1880,12929,46444
1881,9304,46445
1882,12300,46449
1883,9305,46452
1884,9306,46456
1885,1762,46457
1886,9307,46458
1887,2950,46459
1888,13872,51220
1889,13873,51221
1890,13874,51222
1891,13875,51225
1892,13876,51226
1893,8570,51228
1894,8310,51229
1895,13877,51230
1896,13878,51232
1897,13879,51233
1898,13880,51236
1899,13881,51239
1900,294,51241
1901,13882,51242
1902,13883,51243
1903,13884,51246
1904,13885,51247
1905,13886,51253
1906,13887,51257
1907,13888,51258
1908,8312,51259
1909,3811,51260
1910,13889,51264
1911,5596,51265
1912,13890,51266
1913,2057,51267
1914,13891,51270
1915,13892,51274
1916,13893,51276
1917,13894,51278
1918,13895,51281
1919,13896,51282
1920,2227,32311
1921,13216,32312
1922,10876,32314
1923,7235,32315
1924,7236,32317
1925,2137,32319
1926,10887,32325
1927,7237,32326
1928,2206,32327
1929,17312,32329
1930,17314,32330
1931,17271,32332
1932,2207,32334
1933,10880,32335
1934,7238,32339
1935,17273,32340
1936,7239,32341
1937,326,32343
1938,2218,32345
1939,7240,32349
1940,13160,32354
1941,7241,32361
1942,2237,32364
1943,7242,32367
1944,1012,32369
1945,338,32370
1946,17225,32373
1947,1881,32375
1948,17223,32376
1949,17222,32377
1950,13272,32378
1951,2520,32381
1952,375,21811
1953,5746,21815
1954,4099,21834
1955,5754,21839
1956,4100,21877
1957,4101,21922
1958,4102,21925
1959,5764,21977
1960,4103,22018
1961,560,22023
1962,4104,22024
1963,615,22083
1964,4105,22114
1965,5918,22134
1966,493,22153
1967,4106,22165
1968,4107,22193
1969,4108,22199
1970,5811,22260
1971,4109,22276
1972,318,22329
1973,4110,22423
1974,5830,22430
1975,617,22432
1976,618,22499
1977,5838,22505
1978,5840,22510
1979,5845,22567
1980,4111,22580
1981,619,22599
1982,360,22604
1983,4112,22610
1984,14768,53637
1985,6976,53638
1986,14769,53641
1987,684,53642
1988,9127,53643
1989,14770,53645
1990,14771,53646
1991,436,53647
1992,14772,53650
1993,14773,53651
1994,14774,53652
1995,14775,53653
1996,14776,53654
1997,14777,53655
1998,6986,53656
1999,14778,53657
2000,1799,53658
2001,14779,53659
2002,14780,53660
2003,14781,53662
2004,14782,53663
2005,14783,53664
2006,14784,53668
2007,437,53669
2008,14785,53671
2009,14786,53674
2010,14787,53675
2011,14788,53676
2012,14789,53679
2013,2536,53680
2014,14790,53681
2015,402,53684
2016,8549,41218
2017,8550,41221
2018,8551,41223
2019,11789,41231
2020,11790,41232
2021,11791,41238
2022,8554,41243
2023,4407,41245
2024,1727,41248
2025,8547,41251
2026,8556,41253
2027,8546,41257
2028,8544,41260
2029,5289,41264
2030,8557,41277
2031,3423,41281
2032,11792,41287
2033,11793,41288
2034,11794,41290
2035,8558,41291
2036,11795,41298
2037,2666,41301
2038,8559,41302
2039,8560,41309
2040,3292,41314
2041,2200,41316
2042,11796,41324
2043,11797,41326
2044,2214,41327
2045,4412,41328
2046,11798,41336
2047,3425,41337
2048,11484,38376
2049,1236,38378
2050,11485,38382
2051,11486,38385
2052,112,38388
2053,1281,38391
2054,5248,38394
2055,8141,38400
2056,1280,38403
2057,8142,38404
2058,5147,38411
2059,5273,38414
2060,11487,38415
2061,8143,38416
2062,1282,38423
2063,7949,38425
2064,8145,38428
2065,7932,38431
2066,11488,38435
2067,3609,38437
2068,8147,38440
2069,3208,38442
2070,8149,38448
2071,8150,38449
2072,8151,38451
2073,8152,38453
2074,11489,38457
2075,3278,38461
2076,11490,38462
2077,11491,38463
2078,1288,38465
2079,8154,38469
2080,9644,3291
2081,9611,3300
2082,10440,3302
2083,10442,3308
2084,10434,3314
2085,10435,3321
2086,10396,3347
2087,10421,3373
2088,4555,3380
2089,10444,3384
2090,10437,3389
2091,9616,3417
2092,10411,3431
2093,4556,3518
2094,9610,3532
2095,16491,3537
2096,9588,3540
2097,10137,3550
2098,9586,3564
2099,9583,3565
2100,10135,3568
2101,10136,3582
2102,16379,3585
2103,9594,3593
2104,11382,3599
2105,4557,3602
2106,9584,3625
2107,10186,3636
2108,16195,3666
2109,10417,3684
2110,10430,3687
2111,16241,3713
2112,7398,6317
2113,1624,6321
2114,1625,6322
2115,41,6324
2116,5021,6325
2117,1626,6326
2118,1627,6327
2119,1628,6328
2120,1629,6329
2121,7380,6330
2122,7377,6332
2123,1630,6333
2124,1631,6334
2125,4959,6335
2126,1632,6336
2127,1633,6339
2128,7381,6341
2129,1634,6342
2130,7383,6343
2131,5026,6344
2132,1635,6345
2133,7367,6348
2134,1636,6349
2135,7365,6350
2136,1637,6352
2137,1638,6353
2138,1639,6354
2139,1640,6356
2140,7768,6357
2141,6817,6358
2142,1641,6359
2143,7839,6366
2144,1459,5362
2145,5522,5366
2146,1460,5367
2147,5815,5368
2148,5820,5369
2149,5819,5370
2150,5807,5372
2151,5510,5374
2152,1461,5375
2153,5813,5379
2154,1462,5381
2155,5282,5383
2156,169,5390
2157,164,5399
2158,8514,5402
2159,166,5405
2160,1463,5412
2161,1464,5415
2162,5981,5417
2163,5975,5418
2164,5490,5419
2165,8788,5420
2166,1465,5421
2167,8762,5422
2168,8757,5423
2169,5168,5424
2170,1466,5425
2171,1467,5427
2172,1468,5428
2173,5972,5429
2174,9460,5430
2175,5251,5431
2176,8101,38025
2177,8102,38026
2178,16199,38030
2179,11445,38031
2180,3555,38033
2181,11447,38034
2182,4359,38036
2183,3585,38042
2184,11446,38044
2185,8103,38045
2186,1234,38047
2187,8104,38051
2188,8105,38053
2189,1229,38060
2190,11449,38062
2191,3584,38063
2192,11453,38066
2193,4363,38067
2194,12650,38070
2195,8106,38071
2196,11450,38073
2197,3413,38075
2198,3654,38076
2199,8107,38077
2200,16341,38079
2201,1037,38082
2202,12692,38083
2203,12527,38084
2204,1238,38085
2205,8108,38092
2206,12649,38093
2207,8109,38096
2208,4231,53356
2209,14671,53364
2210,14672,53366
2211,14674,53372
2212,14677,53377
2213,14683,53392
2214,14758,53409
2215,9449,53418
2216,794,53430
2217,14699,53435
2218,14701,53444
2219,14718,53463
2220,14712,53464
2221,14705,53472
2222,434,53479
2223,14707,53481
2224,14711,53489
2225,14717,53500
2226,14723,53504
2227,9450,53520
2228,14726,53525
2229,2700,53533
2230,14738,53534
2231,14732,53541
2232,14747,53580
2233,14766,53605
2234,14760,53606
2235,14759,53607
2236,683,53611
2237,14767,53617
2238,438,53627
2239,437,53640
2240,3675,54978
2241,606,54980
2242,9461,54983
2243,9258,54985
2244,15285,54986
2245,15286,54992
2246,15287,54993
2247,15288,54997
2248,15289,55000
2249,15290,55001
2250,15291,55002
2251,3623,55003
2252,3373,55004
2253,15292,55006
2254,3630,55009
2255,15293,55010
2256,15294,55011
2257,15295,55012
2258,9300,55013
2259,15296,55014
2260,9298,55016
2261,15297,55017
2262,15298,55022
2263,15299,55023
2264,15300,55024
2265,3707,55026
2266,15301,55027
2267,8918,55028
2268,8919,55029
2269,15302,55030
2270,15303,55033
2271,15304,55035
2272,4724,35197
2273,7653,35200
2274,11166,35202
2275,11167,35207
2276,1608,35208
2277,2883,35212
2278,11168,35214
2279,11169,35220
2280,7655,35221
2281,7654,35224
2282,2858,35227
2283,11170,35231
2284,11171,35232
2285,2373,35236
2286,11172,35238
2287,2613,35240
2288,7634,35242
2289,11173,35244
2290,1662,35247
2291,11174,35252
2292,2614,35254
2293,202,35256
2294,11175,35257
2295,11176,35258
2296,11177,35259
2297,7658,35260
2298,2318,35261
2299,11178,35265
2300,11179,35266
2301,4576,35267
2302,7659,35268
2303,2836,35270
2304,15978,56784
2305,15979,56786
2306,15980,56787
2307,15981,56792
2308,15982,56793
2309,15983,56794
2310,15984,56798
2311,8260,56799
2312,15985,56800
2313,5457,56804
2314,15986,56809
2315,2327,56812
2316,6267,56813
2317,15987,56815
2318,15988,56816
2319,8254,56817
2320,5436,56819
2321,4387,56821
2322,6263,56822
2323,15989,56823
2324,15990,56824
2325,6264,56825
2326,15991,56826
2327,646,56827
2328,9472,56828
2329,15992,56829
2330,6386,56832
2331,15993,56833
2332,15994,56837
2333,15995,56839
2334,6276,56840
2335,808,56844
2336,4177,28307
2337,1026,28310
2338,67,28311
2339,10482,28314
2340,3475,28317
2341,292,28319
2342,3619,28325
2343,10483,28327
2344,6660,28330
2345,6661,28335
2346,1017,28339
2347,6664,28345
2348,2111,28347
2349,10484,28350
2350,6665,28353
2351,10485,28355
2352,1044,28359
2353,6667,28365
2354,5234,28367
2355,6668,28371
2356,4139,28374
2357,97,28377
2358,10486,28379
2359,5233,28382
2360,10487,28384
2361,10488,28389
2362,3641,28392
2363,3642,28398
2364,278,28404
2365,1041,28405
2366,6633,28406
2367,10489,28407
2368,14063,46918
2369,12369,46919
2370,3359,46923
2371,9380,46926
2372,259,46931
2373,1833,46932
2374,4484,46935
2375,3020,46936
2376,9381,46937
2377,9382,46939
2378,12366,46940
2379,12354,46941
2380,14067,46945
2381,12367,46946
2382,14180,46949
2383,12981,46951
2384,4504,46952
2385,12951,46956
2386,14071,46958
2387,1909,46961
2388,12360,46962
2389,3493,46963
2390,9383,46964
2391,12726,46965
2392,1815,46967
2393,1393,46971
2394,14189,46973
2395,401,46974
2396,12359,46975
2397,14188,46976
2398,15252,46983
2399,2698,46984
2400,16937,59347
2401,16938,59348
2402,16939,59352
2403,16940,59353
2404,16941,59356
2405,7829,59360
2406,16942,59362
2407,16943,59363
2408,16944,59365
2409,16945,59366
2410,9491,59370
2411,16946,59371
2412,16947,59373
2413,211,59374
2414,16948,59376
2415,16949,59379
2416,16950,59381
2417,16951,59382
2418,7183,59383
2419,16952,59384
2420,42,59386
2421,16953,59394
2422,16954,59396
2423,16955,59397
2424,4334,59398
2425,16956,59399
2426,2862,59400
2427,725,59401
2428,16957,59403
2429,16958,59408
2430,446,59409
2431,16959,59411
2432,5008,58879
2433,4516,58880
2434,16763,58882
2435,16764,58885
2436,2824,58886
2437,16765,58887
2438,2215,58888
2439,2131,58893
2440,16766,58895
2441,16767,58896
2442,16768,58898
2443,2915,58899
2444,2918,58900
2445,16769,58903
2446,16770,58911
2447,16771,58912
2448,7447,58913
2449,16772,58914
2450,4997,58915
2451,16773,58917
2452,16774,58919
2453,2913,58921
2454,16775,58922
2455,16776,58927
2456,16777,58928
2457,16778,58929
2458,16779,58930
2459,7426,58931
2460,16780,58932
2461,16781,58933
2462,16782,58935
2463,2816,58937
2464,1120,27176
2465,13904,27177
2466,10370,27178
2467,562,27181
2468,6494,27183
2469,6495,27189
2470,6496,27193
2471,10350,27194
2472,3349,27196
2473,10361,27197
2474,6497,27198
2475,13560,27203
2476,13938,27205
2477,6498,27208
2478,6499,27210
2479,3831,27211
2480,1122,27213
2481,13533,27217
2482,504,27218
2483,13919,27219
2484,6500,27220
2485,10850,27223
2486,6501,27224
2487,13947,27225
2488,6502,27226
2489,3886,27227
2490,572,27228
2491,4185,27229
2492,10352,27230
2493,2031,27233
2494,3324,27235
2495,3323,27237
2496,4932,7275
2497,1809,7276
2498,9119,7277
2499,1810,7283
2500,1811,7285
2501,1812,7287
2502,193,7288
2503,1813,7289
2504,4951,7290
2505,9138,7292
2506,9137,7294
2507,1814,7297
2508,1815,7302
2509,1816,7303
2510,1817,7304
2511,1818,7306
2512,4947,7307
2513,1819,7308
2514,231,7310
2515,1820,7315
2516,1821,7317
2517,1822,7318
2518,4849,7320
2519,1823,7321
2520,1824,7322
2521,4950,7323
2522,9009,7324
2523,9008,7325
2524,1825,7327
2525,1826,7328
2526,1827,7331
2527,1828,7336
2528,5108,15588
2529,5117,15593
2530,9584,15635
2531,5121,15671
2532,9585,15673
2533,9586,15684
2534,5126,15718
2535,5127,15727
2536,1434,15736
2537,9587,15746
2538,9588,15761
2539,5129,15762
2540,1462,15801
2541,1438,15819
2542,9589,15855
2543,5142,15881
2544,1133,15931
2545,4558,15937
2546,1106,15950
2547,9590,16001
2548,181,16018
2549,152,16026
2550,5154,16038
2551,4541,16053
2552,5151,16058
2553,4599,16072
2554,9591,16083
2555,5134,16107
2556,5159,16111
2557,9592,16132
2558,1150,16145
2559,1420,16149
2560,5873,22754
2561,5874,22756
2562,9903,22757
2563,4018,22759
2564,2396,22761
2565,15400,22773
2566,5875,22776
2567,5876,22780
2568,5877,22781
2569,5878,22782
2570,15535,22783
2571,2296,22788
2572,9893,22789
2573,4059,22790
2574,9897,22795
2575,5879,22798
2576,378,22802
2577,4019,22807
2578,3773,22808
2579,15390,22809
2580,5880,22811
2581,15389,22812
2582,5881,22816
2583,2094,22817
2584,13650,22818
2585,2477,22820
2586,5882,22821
2587,4025,22823
2588,1338,22825
2589,3719,22826
2590,9902,22829
2591,1339,22830
2592,4777,34239
2593,7485,34242
2594,11067,34245
2595,11068,34246
2596,2405,34251
2597,11069,34255
2598,7505,34257
2599,11070,34258
2600,11071,34262
2601,2276,34263
2602,4298,34265
2603,4290,34268
2604,4288,34270
2605,2404,34273
2606,4707,34274
2607,7504,34275
2608,11072,34277
2609,11073,34278
2610,11074,34282
2611,7507,34286
2612,7508,34291
2613,11075,34297
2614,990,34298
2615,11076,34301
2616,7510,34303
2617,11077,34307
2618,7512,34311
2619,2139,34312
2620,4654,34313
2621,7514,34318
2622,7515,34322
2623,11078,34324
2624,1138,15455
2625,16532,15459
2626,12035,15465
2627,1431,15470
2628,1482,15472
2629,5103,15476
2630,11497,15483
2631,2009,15484
2632,11487,15486
2633,1971,15489
2634,16524,15490
2635,12137,15491
2636,5104,15493
2637,16226,15494
2638,5105,15496
2639,5106,15501
2640,16261,15513
2641,10056,15517
2642,5107,15518
2643,5108,15520
2644,11393,15521
2645,16236,15524
2646,11494,15525
2647,13980,15529
2648,11490,15530
2649,16185,15532
2650,5109,15534
2651,5110,15535
2652,5111,15537
2653,10147,15539
2654,5112,15546
2655,13131,15548
2656,716,34915
2657,7616,34923
2658,7608,34939
2659,4307,34943
2660,4308,34978
2661,4309,34999
2662,4310,35055
2663,7634,35062
2664,4311,35092
2665,4312,35106
2666,7844,35164
2667,7837,35172
2668,7652,35188
2669,4313,35203
2670,4314,35216
2671,414,35218
2672,4315,35246
2673,719,35281
2674,4316,35297
2675,4317,35309
2676,7673,35311
2677,4318,35351
2678,4319,35353
2679,4320,35355
2680,4321,35396
2681,7688,35416
2682,720,35433
2683,404,35480
2684,4322,35501
2685,7709,35502
2686,4323,35504
2687,7718,35506
2688,10345,27179
2689,1094,27180
2690,2050,27184
2691,10346,27185
2692,290,27186
2693,6479,27187
2694,5427,27188
2695,6495,27190
2696,10347,27195
2697,10348,27200
2698,6497,27204
2699,6498,27209
2700,3831,27212
2701,10349,27214
2702,1122,27215
2703,10350,27216
2704,6426,27221
2705,6500,27222
2706,3886,27232
2707,3324,27236
2708,10351,27239
2709,3323,27240
2710,504,27241
2711,10352,27242
2712,5362,27243
2713,10353,27244
2714,2013,27246
2715,10354,27247
2716,6499,27249
2717,5399,27250
2718,4182,27252
2719,10355,27259
2720,14515,52938
2721,14516,52939
2722,6989,52941
2723,14517,52942
2724,6998,52947
2725,14518,52949
2726,14519,52951
2727,404,52952
2728,14520,52954
2729,14521,52956
2730,7708,52958
2731,7707,52959
2732,14522,52960
2733,14523,52961
2734,14524,52962
2735,14525,52964
2736,14526,52967
2737,14527,52970
2738,2558,52972
2739,7689,52974
2740,14528,52978
2741,679,52979
2742,14529,52980
2743,14530,52981
2744,2756,52982
2745,14531,52983
2746,14532,52987
2747,14533,52988
2748,14534,52989
2749,2562,52991
2750,14535,52993
2751,681,52995
2752,9114,45211
2753,9115,45215
2754,9116,45216
2755,12178,45225
2756,9117,45227
2757,13301,45230
2758,2802,45233
2759,14851,45235
2760,9118,45236
2761,312,45238
2762,9119,45239
2763,9120,45243
2764,9121,45247
2765,14852,45250
2766,9122,45254
2767,2551,45256
2768,9123,45259
2769,1810,45262
2770,4317,45263
2771,2546,45267
2772,2805,45268
2773,9124,45274
2774,12213,45275
2775,12177,45278
2776,13235,45281
2777,9125,45282
2778,9126,45287
2779,2545,45290
2780,9127,45292
2781,150,45293
2782,9128,45294
2783,12182,45295
2784,10126,24937
2785,6181,24938
2786,6182,24939
2787,6183,24940
2788,6184,24941
2789,6185,24943
2790,12984,24944
2791,6186,24946
2792,15871,24947
2793,1208,24948
2794,588,24950
2795,6187,24951
2796,15879,24957
2797,6188,24958
2798,12880,24959
2799,94,24960
2800,10131,24963
2801,6189,24965
2802,10128,24966
2803,15874,24967
2804,6190,24969
2805,1205,24972
2806,12883,24979
2807,4058,24988
2808,6191,24991
2809,6192,24992
2810,16502,24994
2811,1251,24996
2812,6193,24997
2813,16493,24998
2814,1926,25002
2815,4143,25003
2816,7536,51167
2817,13854,51168
2818,13855,51170
2819,8743,51171
2820,13856,51173
2821,2766,51174
2822,13857,51175
2823,13858,51176
2824,13859,51182
2825,13860,51183
2826,6599,51184
2827,13861,51187
2828,7341,51188
2829,7343,51190
2830,13862,51193
2831,527,51194
2832,8733,51195
2833,13863,51196
2834,13864,51197
2835,4929,51198
2836,8737,51199
2837,13865,51201
2838,13866,51202
2839,13867,51205
2840,13868,51206
2841,13869,51207
2842,13870,51208
2843,3452,51210
2844,2101,51213
2845,9434,51214
2846,9435,51216
2847,13871,51219
2848,10353,27238
2849,2013,27245
2850,6503,27248
2851,6504,27251
2852,6505,27254
2853,10356,27256
2854,2057,27258
2855,4184,27260
2856,13524,27262
2857,3786,27263
2858,4187,27265
2859,6506,27269
2860,487,27272
2861,13569,27273
2862,6507,27285
2863,6508,27287
2864,1123,27288
2865,1124,27290
2866,4186,27291
2867,13534,27293
2868,13537,27295
2869,6509,27296
2870,13536,27300
2871,6510,27301
2872,10360,27304
2873,6511,27305
2874,13517,27309
2875,6512,27310
2876,6513,27314
2877,13496,27316
2878,6514,27317
2879,13724,27319
2880,3505,5294
2881,1515,5297
2882,168,5299
2883,169,5304
2884,3875,5310
2885,3874,5312
2886,4109,5314
2887,3784,5324
2888,2363,5329
2889,2319,5334
2890,3807,5343
2891,3817,5344
2892,170,5347
2893,3780,5350
2894,3521,5363
2895,1524,5364
2896,1514,5365
2897,1523,5371
2898,3525,5373
2899,1525,5376
2900,1462,5377
2901,1529,5378
2902,1526,5380
2903,3281,5382
2904,171,5389
2905,2287,5391
2906,172,5395
2907,173,5403
2908,174,5404
2909,3239,5407
2910,1501,5410
2911,1502,5411
2912,11718,40562
2913,11719,40570
2914,1071,40576
2915,11720,40577
2916,11721,40579
2917,8458,40581
2918,11722,40582
2919,8360,40591
2920,4392,40592
2921,8461,40598
2922,8463,40600
2923,8464,40603
2924,8462,40605
2925,11723,40607
2926,887,40609
2927,11724,40611
2928,4014,40613
2929,8465,40614
2930,8460,40616
2931,11725,40618
2932,582,40621
2933,11726,40628
2934,8440,40629
2935,912,40634
2936,11727,40635
2937,8466,40636
2938,8467,40641
2939,1073,40642
2940,4397,40643
2941,11728,40644
2942,11729,40646
2943,11730,40649
2944,14277,52286
2945,14278,52289
2946,14279,52295
2947,5942,52296
2948,5946,52298
2949,14280,52299
2950,14281,52300
2951,14282,52302
2952,14283,52304
2953,5947,52305
2954,14284,52307
2955,776,52308
2956,14285,52310
2957,14286,52312
2958,14287,52315
2959,14288,52317
2960,14289,52318
2961,9442,52319
2962,1778,52320
2963,14290,52322
2964,14291,52324
2965,14292,52327
2966,8715,52328
2967,4129,52330
2968,6047,52331
2969,8512,52332
2970,14293,52333
2971,14294,52334
2972,14295,52335
2973,14296,52339
2974,14297,52343
2975,763,52344
2976,10508,28654
2977,6708,28655
2978,1684,28657
2979,3099,28658
2980,1940,28660
2981,10509,28662
2982,10510,28665
2983,3042,28666
2984,10511,28667
2985,5044,28671
2986,6709,28673
2987,6710,28679
2988,10512,28680
2989,5051,28683
2990,1654,28684
2991,2649,28688
2992,10513,28689
2993,4863,28695
2994,5055,28697
2995,6713,28701
2996,10514,28703
2997,6712,28704
2998,10515,28706
2999,3095,28710
3000,6717,28716
3001,6718,28719
3002,5057,28721
3003,10516,28722
3004,10517,28724
3005,3059,28725
3006,2647,28727
3007,6719,28729
3008,6940,30217
3009,10654,30218
3010,1965,30219
3011,6942,30221
3012,10655,30222
3013,1567,30223
3014,10656,30227
3015,6943,30230
3016,10657,30231
3017,10658,30235
3018,4852,30237
3019,6946,30242
3020,10659,30243
3021,6945,30245
3022,6947,30246
3023,1573,30255
3024,4234,30256
3025,2584,30257
3026,6950,30265
3027,4229,30266
3028,6951,30270
3029,10660,30273
3030,10661,30275
3031,2592,30279
3032,6953,30280
3033,2581,30286
3034,10662,30287
3035,387,30288
3036,6955,30293
3037,1544,30295
3038,2611,30297
3039,6956,30300
3040,803,48179
3041,12741,48181
3042,12835,48184
3043,12744,48197
3044,12740,48200
3045,1062,48207
3046,12805,48209
3047,543,48218
3048,1993,48229
3049,12759,48233
3050,9415,48235
3051,12755,48239
3052,12761,48240
3053,12776,48244
3054,12763,48254
3055,12781,48259
3056,12774,48271
3057,12779,48287
3058,12782,48301
3059,12799,48312
3060,12789,48320
3061,12798,48329
3062,12855,48330
3063,12794,48334
3064,12792,48335
3065,4505,48354
3066,4355,48358
3067,12844,48361
3068,12806,48366
3069,12840,48394
3070,12821,48400
3071,12825,48402
3072,7681,35561
3073,11207,35567
3074,4881,35569
3075,7713,35571
3076,11208,35576
3077,7714,35578
3078,1876,35579
3079,11209,35580
3080,1571,35583
3081,11210,35585
3082,11211,35590
3083,4569,35591
3084,2570,35592
3085,7715,35593
3086,11212,35599
3087,11213,35600
3088,2579,35604
3089,1880,35606
3090,2554,35607
3091,11214,35608
3092,1553,35614
3093,184,35618
3094,11215,35619
3095,11216,35620
3096,7666,35625
3097,11217,35628
3098,11218,35629
3099,7716,35635
3100,1569,35638
3101,11219,35640
3102,2629,35644
3103,11220,35645
3104,10869,10198
3105,9509,10205
3106,17277,10207
3107,4636,10209
3108,4637,10216
3109,9826,10217
3110,1377,10220
3111,10874,10230
3112,16743,10231
3113,15434,10234
3114,12120,10236
3115,10950,10247
3116,10953,10250
3117,4638,10251
3118,13715,10252
3119,15446,10253
3120,13713,10257
3121,12225,10260
3122,11887,10265
3123,4639,10267
3124,4640,10270
3125,17301,10272
3126,4641,10277
3127,1008,10288
3128,10949,10293
3129,16732,10294
3130,17380,10295
3131,4642,10297
3132,10944,10304
3133,17236,10305
3134,1720,10307
3135,11121,10311
3136,3849,19287
3137,3850,19289
3138,150,19290
3139,5707,19292
3140,6545,19293
3141,6391,19294
3142,3851,19297
3143,3852,19298
3144,8957,19301
3145,3853,19303
3146,6392,19306
3147,6388,19307
3148,3854,19310
3149,3855,19311
3150,3856,19312
3151,3857,19319
3152,9221,19324
3153,6126,19325
3154,7898,19326
3155,3858,19327
3156,6389,19329
3157,6390,19332
3158,3859,19334
3159,9475,19335
3160,3860,19336
3161,6286,19340
3162,6288,19341
3163,3861,19343
3164,6289,19347
3165,8826,19354
3166,9134,19358
3167,8830,19359
3168,7345,10308
3169,9037,10309
3170,2226,10310
3171,8814,10312
3172,7580,10314
3173,2227,10316
3174,7358,10317
3175,9176,10320
3176,7574,10326
3177,8790,10327
3178,7252,10335
3179,7302,10338
3180,2228,10341
3181,328,10347
3182,2229,10349
3183,7523,10350
3184,8715,10351
3185,7309,10355
3186,2230,10357
3187,7283,10359
3188,8516,10361
3189,2231,10363
3190,2232,10366
3191,7250,10376
3192,2233,10377
3193,7220,10380
3194,8991,10382
3195,2234,10387
3196,7272,10390
3197,2235,10395
3198,7162,10398
3199,58,10400
3200,12261,46073
3201,12262,46075
3202,9244,46080
3203,12263,46083
3204,9243,46084
3205,9247,46090
3206,9248,46092
3207,2606,46098
3208,9250,46102
3209,1704,46105
3210,12264,46106
3211,3632,46107
3212,3006,46108
3213,9242,46110
3214,12265,46111
3215,9253,46118
3216,9255,46122
3217,12266,46123
3218,12267,46129
3219,1701,46134
3220,12268,46137
3221,2835,46140
3222,12269,46144
3223,3672,46145
3224,9260,46146
3225,12270,46147
3226,12271,46148
3227,280,46149
3228,2833,46154
3229,9257,46155
3230,1503,46156
3231,12272,46163
3232,1744,41790
3233,8626,41791
3234,4879,41794
3235,3485,41805
3236,4564,41807
3237,8631,41815
3238,11838,41819
3239,8630,41820
3240,3010,41821
3241,8634,41825
3242,11839,41826
3243,8635,41831
3244,4871,41833
3245,11840,41834
3246,11841,41835
3247,3008,41841
3248,8637,41842
3249,11842,41845
3250,8633,41846
3251,216,41854
3252,4853,41861
3253,11843,41864
3254,1775,41866
3255,8640,41869
3256,3032,41870
3257,11844,41871
3258,8643,41875
3259,4432,41876
3260,11845,41877
3261,8632,41879
3262,2590,41884
3263,8645,41886
3264,17000,59540
3265,17001,59541
3266,17002,59543
3267,17003,59544
3268,3118,59546
3269,6798,59547
3270,17004,59549
3271,17005,59550
3272,17006,59551
3273,7755,59552
3274,17007,59554
3275,17008,59555
3276,17009,59557
3277,17010,59560
3278,17011,59561
3279,703,59563
3280,17012,59564
3281,17013,59565
3282,7113,59566
3283,7141,59570
3284,17014,59572
3285,7144,59574
3286,17015,59576
3287,17016,59577
3288,17017,59578
3289,17018,59580
3290,7,59582
3291,949,59583
3292,17019,59588
3293,17020,59590
3294,17021,59591
3295,17022,59592
3296,2657,28906
3297,10534,28909
3298,13138,28910
3299,13149,28913
3300,186,28917
3301,4212,28920
3302,13136,28922
3303,2653,28924
3304,14618,28927
3305,4213,28928
3306,1983,28931
3307,2007,28934
3308,291,28936
3309,10536,28937
3310,4214,28938
3311,6743,28939
3312,2547,28944
3313,14481,28945
3314,6744,28947
3315,6745,28952
3316,415,28956
3317,2624,28959
3318,6746,28962
3319,2601,28968
3320,6747,28970
3321,13134,28971
3322,14625,28974
3323,10538,28977
3324,13077,28980
3325,1541,28983
3326,6748,28985
3327,6749,28987
3328,15734,22674
3329,117,22677
3330,15643,22688
3331,1308,22691
3332,15723,22692
3333,15730,22694
3334,4112,22695
3335,3762,22696
3336,2367,22699
3337,5865,22702
3338,15674,22710
3339,5866,22712
3340,2268,22714
3341,354,22715
3342,9884,22716
3343,15722,22717
3344,5867,22720
3345,3688,22730
3346,5868,22732
3347,9887,22733
3348,15399,22735
3349,5869,22737
3350,565,22738
3351,5870,22740
3352,9894,22741
3353,5871,22743
3354,4114,22745
3355,4115,22747
3356,5872,22748
3357,15397,22750
3358,3722,22752
3359,15392,22753
3360,3105,36014
3361,12952,36016
3362,17008,36021
3363,11260,36023
3364,11261,36027
3365,2963,36028
3366,4283,36031
3367,11262,36034
3368,2959,36036
3369,12936,36040
3370,7782,36041
3371,7783,36042
3372,3147,36043
3373,723,36045
3374,11263,36049
3375,11264,36052
3376,7784,36053
3377,17003,36059
3378,2964,36060
3379,7785,36062
3380,17001,36063
3381,11268,36064
3382,16998,36065
3383,3154,36069
3384,3015,36072
3385,16920,36074
3386,7786,36076
3387,12863,36077
3388,2988,36079
3389,7787,36081
3390,7788,36082
3391,7789,36085
3392,3371,15854
3393,3597,15856
3394,3600,15864
3395,3268,15868
3396,484,15872
3397,4196,15882
3398,3552,15883
3399,4499,15892
3400,3507,15898
3401,3271,15918
3402,3555,15921
3403,3504,15924
3404,4289,15929
3405,4301,15935
3406,3360,15936
3407,485,15939
3408,3491,15944
3409,486,15955
3410,3474,15960
3411,3316,15961
3412,4124,15965
3413,3410,15966
3414,3533,15979
3415,487,15980
3416,4181,15995
3417,3408,15998
3418,3952,16009
3419,3605,16015
3420,488,16019
3421,4341,16021
3422,3599,16024
3423,489,16027
3424,16918,59283
3425,7763,59284
3426,16919,59287
3427,3184,59288
3428,16920,59289
3429,16921,59293
3430,16922,59294
3431,16923,59295
3432,16924,59300
3433,7195,59302
3434,16925,59303
3435,3173,59304
3436,16926,59308
3437,7823,59310
3438,16927,59312
3439,3174,59314
3440,16928,59315
3441,7767,59316
3442,16929,59320
3443,16930,59322
3444,16931,59323
3445,16932,59325
3446,16933,59327
3447,2909,59328
3448,16934,59330
3449,6790,59332
3450,451,59337
3451,16935,59338
3452,7759,59339
3453,722,59341
3454,7770,59344
3455,16936,59346
3456,7213,32176
3457,2971,32177
3458,10861,32179
3459,2866,32181
3460,7214,32184
3461,16657,32188
3462,3188,32189
3463,7215,32193
3464,7216,32194
3465,208,32197
3466,13323,32201
3467,2941,32203
3468,16697,32206
3469,7217,32207
3470,16687,32208
3471,7218,32211
3472,16690,32212
3473,10867,32215
3474,16660,32217
3475,2919,32220
3476,4261,32221
3477,7219,32225
3478,16796,32227
3479,17317,32230
3480,7220,32231
3481,10868,32232
3482,7221,32235
3483,2228,32237
3484,7222,32238
3485,2259,32241
3486,7223,32242
3487,13156,32243
3488,11424,37893
3489,11425,37896
3490,11426,37897
3491,8080,37898
3492,11427,37901
3493,8086,37903
3494,7922,37909
3495,11428,37914
3496,1038,37915
3497,1033,37917
3498,3658,37918
3499,5328,37919
3500,11429,37920
3501,3666,37923
3502,11430,37925
3503,5334,37927
3504,11431,37929
3505,8089,37936
3506,4347,37943
3507,1221,37945
3508,5237,37955
3509,11432,37957
3510,1029,37958
3511,8085,37964
3512,5333,37965
3513,3646,37968
3514,11433,37969
3515,11434,37971
3516,1027,37972
3517,11435,37973
3518,8094,37975
3519,3667,37978
3520,2239,8166
3521,1984,8167
3522,2042,8168
3523,1983,8171
3524,1916,8178
3525,2976,8180
3526,272,8183
3527,1917,8185
3528,1961,8186
3529,2032,8187
3530,2974,8188
3531,1894,8189
3532,1998,8190
3533,1953,8197
3534,1903,8202
3535,2033,8204
3536,1911,8206
3537,1890,8207
3538,1902,8208
3539,1912,8209
3540,4195,8211
3541,2393,8212
3542,3465,8214
3543,3087,8215
3544,1918,8218
3545,2898,8225
3546,2981,8228
3547,3426,8230
3548,1940,8237
3549,1944,8239
3550,1913,8243
3551,3121,8244
3552,8582,53956
3553,14899,53957
3554,14900,53959
3555,14901,53961
3556,14902,53963
3557,14903,53964
3558,8930,53966
3559,14904,53967
3560,14905,53968
3561,14906,53972
3562,14907,53974
3563,14908,53975
3564,14909,53977
3565,14910,53978
3566,8942,53979
3567,14911,53981
3568,4451,53982
3569,14912,53984
3570,14913,53986
3571,1485,53987
3572,14914,53988
3573,14915,53989
3574,6036,53990
3575,3206,53992
3576,4566,53994
3577,629,53997
3578,14916,53999
3579,14917,54002
3580,14918,54003
3581,14919,54005
3582,14920,54006
3583,767,54007
3584,4486,45589
3585,12217,45590
3586,9168,45594
3587,1911,45598
3588,9169,45599
3589,9170,45603
3590,12448,45608
3591,3793,45610
3592,4488,45611
3593,9171,45612
3594,4487,45613
3595,12221,45614
3596,9172,45615
3597,9173,45618
3598,9174,45619
3599,12222,45620
3600,12223,45628
3601,9175,45629
3602,1803,45633
3603,14777,45634
3604,2788,45635
3605,12413,45637
3606,1781,45638
3607,12227,45640
3608,4323,45642
3609,12224,45643
3610,9176,45646
3611,15176,45647
3612,9177,45650
3613,9178,45651
3614,14685,45654
3615,2239,45657
3616,4328,35794
3617,11235,35798
3618,7744,35802
3619,1556,35804
3620,7745,35807
3621,11238,35808
3622,7746,35810
3623,4312,35817
3624,7747,35819
3625,7748,35821
3626,12993,35822
3627,11316,35827
3628,7749,35829
3629,11243,35830
3630,7750,35834
3631,16993,35836
3632,7751,35837
3633,16602,35838
3634,7752,35843
3635,7753,35851
3636,7754,35854
3637,17007,35856
3638,7755,35859
3639,17005,35860
3640,17004,35862
3641,16996,35867
3642,12996,35868
3643,11246,35869
3644,2966,35870
3645,7756,35874
3646,3133,35876
3647,265,35878
3648,10059,5594
3649,9500,5598
3650,9954,5615
3651,11924,5621
3652,10040,5625
3653,14878,5626
3654,9596,5647
3655,9931,5652
3656,14624,5718
3657,10670,5733
3658,14447,5737
3659,14498,5770
3660,11135,5771
3661,11171,5806
3662,14575,5809
3663,9541,5824
3664,11140,5848
3665,11153,5858
3666,11152,5866
3667,11150,5874
3668,4567,5879
3669,11143,5880
3670,14509,5897
3671,10678,5913
3672,12200,5947
3673,9551,5963
3674,10605,5964
3675,14813,5967
3676,12203,5974
3677,10673,5977
3678,11197,5982
3679,14856,5996
3680,759,41022
3681,764,41263
3682,768,41376
3683,772,42011
3684,798,42217
3685,776,42497
3686,777,42569
3687,779,42877
3688,787,42931
3689,782,43315
3690,802,47099
3691,803,47379
3692,851,1
3693,2398,2
3694,4252,3
3695,852,5
3696,853,6
3697,959,8
3698,2416,9
3699,854,10
3700,960,13
3701,2385,17
3702,965,18
3703,2294,19
3704,4284,21
3705,2378,22
3706,856,23
3707,2380,25
3708,968,26
3709,2381,27
3710,857,28
3711,2503,30
3712,2060,9361
3713,3172,9364
3714,2064,9365
3715,3171,9368
3716,296,9369
3717,2121,9372
3718,2550,9375
3719,297,9379
3720,2067,9380
3721,2722,9387
3722,2113,9398
3723,2575,9399
3724,2232,9405
3725,2114,9406
3726,2995,9407
3727,2089,9412
3728,2100,9429
3729,2970,9434
3730,3856,9435
3731,2107,9439
3732,2070,9440
3733,2112,9441
3734,2099,9452
3735,2687,9463
3736,2081,9464
3737,4432,9470
3738,3712,9472
3739,2105,9473
3740,2072,9481
3741,2118,9482
3742,2091,9483
3743,2777,9493
3744,336,10531
3745,2517,10535
3746,337,10548
3747,3160,10552
3748,2515,10554
3749,338,10556
3750,2266,10570
3751,2390,10582
3752,2389,10591
3753,2384,10594
3754,339,10596
3755,3573,10600
3756,2439,10601
3757,2442,10605
3758,340,10612
3759,341,10618
3760,2332,10620
3761,342,10626
3762,4507,10633
3763,2464,10634
3764,2475,10644
3765,2400,10664
3766,2407,10669
3767,2411,10670
3768,343,10679
3769,344,10685
3770,2404,10695
3771,2357,10696
3772,2347,10697
3773,2394,10718
3774,2386,10724
3775,3610,10729
3776,25,11275
3777,2364,11281
3778,2,11284
3779,5420,11288
3780,2365,11289
3781,2366,11292
3782,2367,11294
3783,26,11297
3784,6308,11298
3785,2368,11299
3786,2369,11300
3787,2370,11301
3788,2371,11303
3789,2372,11305
3790,6326,11310
3791,5907,11312
3792,5903,11313
3793,5904,11315
3794,2373,11317
3795,5892,11318
3796,2374,11324
3797,8937,11326
3798,8938,11328
3799,2375,11330
3800,5910,11337
3801,2376,11339
3802,8933,11340
3803,6320,11342
3804,8916,11343
3805,5417,11346
3806,7031,11350
3807,7454,11351
3808,724,58609
3809,16807,58619
3810,16671,58626
3811,9485,58629
3812,16673,58630
3813,16672,58633
3814,46,58643
3815,16676,58646
3816,16694,58674
3817,695,58685
3818,16692,58697
3819,16695,58704
3820,16728,58730
3821,16714,58739
3822,16717,58750
3823,16718,58752
3824,9486,58771
3825,16726,58772
3826,16737,58785
3827,9487,58788
3828,16735,58801
3829,16742,58808
3830,703,58810
3831,16745,58823
3832,701,58829
3833,16754,58839
3834,16762,58855
3835,16757,58864
3836,4516,58868
3837,9488,58872
3838,16801,58875
3839,16767,58892
3840,5020,42276
3841,11890,42282
3842,1774,42283
3843,8700,42286
3844,8699,42294
3845,8702,42297
3846,441,42298
3847,3019,42300
3848,283,42301
3849,1428,42307
3850,8704,42310
3851,11891,42311
3852,11892,42313
3853,11893,42316
3854,2010,42319
3855,8709,42330
3856,11894,42334
3857,5014,42335
3858,11895,42341
3859,8710,42344
3860,11896,42347
3861,8712,42349
3862,8713,42355
3863,5013,42356
3864,3152,42357
3865,11897,42361
3866,8553,42362
3867,1435,42364
3868,2078,42365
3869,8714,42367
3870,1724,42374
3871,2943,42377
3872,9424,49206
3873,13131,49208
3874,4500,49210
3875,4217,49211
3876,13132,49212
3877,13133,49213
3878,13134,49217
3879,285,49218
3880,13135,49219
3881,13136,49224
3882,6742,49227
3883,13137,49228
3884,13138,49232
3885,1926,49233
3886,13139,49235
3887,13140,49237
3888,13141,49239
3889,3224,49240
3890,13142,49241
3891,9362,49242
3892,9426,49244
3893,9425,49245
3894,13143,49246
3895,13144,49248
3896,13145,49249
3897,13146,49250
3898,13147,49252
3899,13148,49254
3900,670,49255
3901,13149,49257
3902,13150,49258
3903,13151,49259
3904,8369,2600
3905,5206,2603
3906,1083,2604
3907,1084,2605
3908,5387,2606
3909,5203,2607
3910,1085,2609
3911,1086,2610
3912,8374,2611
3913,1087,2612
3914,8425,2613
3915,5176,2614
3916,8492,2620
3917,1088,2623
3918,5502,2627
3919,1089,2629
3920,8477,2630
3921,5508,2631
3922,5509,2633
3923,1090,2636
3924,8490,2637
3925,1091,2641
3926,1092,2642
3927,1093,2644
3928,8487,2645
3929,8489,2646
3930,1094,2647
3931,8417,2648
3932,8435,2649
3933,8029,2654
3934,5118,2656
3935,1095,2659
3936,2563,35736
3937,7732,35738
3938,13295,35740
3939,7733,35741
3940,4327,35743
3941,14458,35745
3942,7734,35748
3943,7735,35751
3944,7736,35754
3945,13275,35755
3946,1555,35756
3947,14456,35757
3948,11231,35758
3949,11232,35761
3950,191,35763
3951,400,35765
3952,14452,35766
3953,7737,35768
3954,7738,35769
3955,721,35770
3956,7739,35771
3957,11233,35772
3958,7740,35773
3959,7741,35777
3960,7742,35778
3961,14450,35779
3962,14471,35780
3963,14488,35781
3964,1558,35788
3965,2577,35789
3966,7743,35790
3967,13269,35791
3968,15854,56432
3969,8485,56433
3970,15855,56436
3971,15856,56438
3972,15857,56439
3973,15858,56441
3974,1186,56443
3975,6188,56445
3976,3928,56446
3977,15859,56447
3978,15860,56448
3979,15861,56451
3980,15862,56454
3981,15863,56458
3982,15864,56462
3983,6173,56463
3984,15865,56464
3985,15866,56465
3986,94,56466
3987,15867,56468
3988,3305,56469
3989,15868,56470
3990,7941,56471
3991,15869,56474
3992,5485,56475
3993,6189,56477
3994,6181,56480
3995,15870,56482
3996,6178,56484
3997,15871,56486
3998,6187,56488
3999,588,56490
4000,4434,41929
4001,8650,41932
4002,217,41957
4003,770,41973
4004,394,41993
4005,4435,42039
4006,8686,42041
4007,8674,42077
4008,772,42093
4009,4436,42109
4010,8680,42115
4011,8679,42117
4012,771,42118
4013,4437,42141
4014,4438,42142
4015,4439,42173
4016,468,42182
4017,773,42198
4018,4440,42223
4019,8717,42248
4020,4441,42250
4021,4442,42272
4022,8701,42277
4023,4443,42287
4024,775,42320
4025,9320,42381
4026,776,42504
4027,9416,42547
4028,457,42549
4029,4444,42553
4030,777,42613
4031,4445,42645
4032,1352,11762
4033,4779,11763
4034,4780,11764
4035,11048,11766
4036,11593,11768
4037,13643,11771
4038,28,11773
4039,17036,11774
4040,4781,11776
4041,17038,11782
4042,17028,11784
4043,15320,11792
4044,11236,11795
4045,4782,11796
4046,1886,11797
4047,4783,11802
4048,11589,11804
4049,825,11807
4050,1348,11812
4051,30,11814
4052,11586,11815
4053,13636,11822
4054,11230,11824
4055,4784,11825
4056,9899,11828
4057,2276,11829
4058,4785,11830
4059,828,11833
4060,4786,11834
4061,17056,11835
4062,4787,11844
4063,11055,11853
4064,6979,30479
4065,2575,30481
4066,6981,30485
4067,2060,30487
4068,6982,30488
4069,10679,30493
4070,6983,30494
4071,2811,30498
4072,301,30503
4073,2064,30504
4074,4230,30505
4075,6936,30508
4076,10680,30511
4077,2733,30513
4078,2769,30515
4079,1797,30516
4080,10681,30518
4081,10682,30519
4082,6880,30520
4083,10683,30521
4084,1798,30524
4085,2741,30526
4086,4087,30530
4087,6985,30532
4088,405,30533
4089,10684,30538
4090,6984,30539
4091,6948,30551
4092,10685,30552
4093,4899,30555
4094,6990,30557
4095,6991,30559
4096,15595,55777
4097,15601,55787
4098,15604,55789
4099,15605,55799
4100,15610,55805
4101,614,55823
4102,15622,55829
4103,15631,55840
4104,15628,55844
4105,15627,55850
4106,15633,55857
4107,15629,55861
4108,15637,55879
4109,4513,55897
4110,1317,55898
4111,15651,55899
4112,15646,55901
4113,15644,55903
4114,619,55911
4115,15648,55912
4116,15647,55916
4117,15650,55917
4118,15717,55922
4119,15653,55929
4120,15679,55946
4121,367,55947
4122,15660,55951
4123,15661,55953
4124,15669,55963
4125,15665,55966
4126,15678,55993
4127,15682,56000
4128,14499,52895
4129,14500,52896
4130,680,52905
4131,14502,52906
4132,720,52912
4133,14505,52920
4134,14507,52924
4135,14514,52933
4136,14658,52943
4137,14524,52955
4138,14522,52957
4139,679,52971
4140,14535,52992
4141,681,52994
4142,14538,52999
4143,1566,53003
4144,4233,53005
4145,14549,53027
4146,14559,53038
4147,14553,53044
4148,14570,53070
4149,14563,53072
4150,719,53073
4151,14564,53075
4152,806,53079
4153,14569,53081
4154,9447,53088
4155,14572,53098
4156,14599,53107
4157,14592,53108
4158,14591,53109
4159,14582,53114
4160,6300,25722
4161,4158,25728
4162,6301,25731
4163,6302,25733
4164,16139,25735
4165,907,25737
4166,16118,25738
4167,10209,25740
4168,3836,25744
4169,6303,25746
4170,16122,25747
4171,905,25750
4172,10220,25752
4173,6304,25753
4174,16115,25756
4175,4159,25759
4176,16113,25761
4177,15968,25763
4178,351,25765
4179,6305,25766
4180,16008,25768
4181,6306,25773
4182,6307,25776
4183,876,25777
4184,10212,25779
4185,6308,25783
4186,16016,25784
4187,3610,25785
4188,2480,25787
4189,829,25789
4190,2376,25791
4191,10211,25792
4192,7656,8879
4193,6274,8881
4194,6915,8882
4195,1969,8884
4196,9026,8885
4197,9015,8886
4198,4831,8887
4199,4724,8889
4200,7653,8890
4201,5343,8893
4202,6992,8894
4203,7843,8895
4204,6426,8896
4205,6025,8897
4206,6895,8898
4207,4852,8899
4208,4916,8901
4209,8562,8903
4210,1970,8904
4211,8939,8906
4212,8563,8908
4213,7866,8912
4214,1971,8914
4215,5398,8915
4216,1972,8917
4217,1973,8919
4218,4844,8922
4219,7171,8924
4220,1974,8925
4221,5400,8928
4222,1975,8929
4223,1976,8930
4224,2794,53529
4225,14726,53530
4226,14727,53531
4227,6928,53535
4228,14728,53536
4229,14729,53537
4230,14730,53538
4231,14731,53540
4232,6930,53542
4233,14732,53544
4234,14733,53545
4235,9049,53546
4236,6924,53548
4237,14734,53550
4238,4231,53552
4239,14735,53553
4240,14736,53555
4241,14737,53556
4242,14738,53557
4243,2721,53558
4244,14739,53561
4245,14740,53563
4246,9055,53564
4247,14741,53565
4248,14742,53567
4249,14743,53572
4250,6898,53573
4251,14744,53574
4252,14745,53575
4253,2663,53577
4254,2700,53578
4255,14746,53581
4256,4149,2991
4257,3943,2992
4258,84,2997
4259,3302,2999
4260,1283,3002
4261,1160,3003
4262,1161,3005
4263,1246,3006
4264,3218,3007
4265,3231,3008
4266,3227,3009
4267,3922,3010
4268,3369,3011
4269,3366,3012
4270,3379,3014
4271,1267,3015
4272,3358,3017
4273,1260,3018
4274,1261,3019
4275,1262,3020
4276,1263,3021
4277,1265,3025
4278,1184,3026
4279,3370,3027
4280,1244,3028
4281,3933,3029
4282,1185,3030
4283,1186,3031
4284,1211,3032
4285,85,3033
4286,1268,3034
4287,3192,3035
4288,7092,31274
4289,2263,31275
4290,3591,31277
4291,1867,31278
4292,13167,31279
4293,836,31282
4294,2471,31286
4295,2298,31291
4296,7093,31295
4297,4249,31302
4298,844,31303
4299,7094,31308
4300,10766,31309
4301,834,31313
4302,7095,31315
4303,10782,31321
4304,17136,31322
4305,13220,31323
4306,17164,31325
4307,7096,31326
4308,344,31328
4309,7097,31330
4310,2286,31332
4311,2092,31333
4312,7098,31334
4313,17144,31337
4314,17140,31338
4315,2359,31341
4316,2356,31344
4317,13203,31345
4318,847,31350
4319,7099,31354
4320,52,33761
4321,7446,33763
4322,11016,33766
4323,7342,33769
4324,4805,33770
4325,2385,33776
4326,965,33778
4327,2283,33780
4328,7449,33786
4329,7451,33788
4330,7452,33795
4331,11017,33797
4332,304,33798
4333,11018,33799
4334,7448,33800
4335,4775,33804
4336,11019,33815
4337,7454,33816
4338,7455,33820
4339,11020,33822
4340,11021,33823
4341,11022,33824
4342,7456,33827
4343,7450,33829
4344,3949,33830
4345,11023,33836
4346,7453,33837
4347,7459,33839
4348,11024,33842
4349,2407,33843
4350,2411,33847
4351,2400,33855
4352,4500,46504
4353,4501,46506
4354,798,46568
4355,541,46686
4356,9440,46872
4357,4502,46883
4358,4503,46891
4359,4504,46944
4360,401,46972
4361,801,46980
4362,800,47021
4363,656,47204
4364,654,47279
4365,543,47297
4366,9410,47360
4367,535,47391
4368,803,47602
4369,4505,47897
4370,4506,47934
4371,802,48691
4372,635,48835
4373,4507,49443
4374,4508,49481
4375,787,50195
4376,604,50299
4377,9431,50494
4378,757,50558
4379,9432,50703
4380,4509,51428
4381,658,51474
4382,612,51721
4383,610,51839
4384,10639,30130
4385,10640,30132
4386,4896,30133
4387,6932,30138
4388,4924,30141
4389,10641,30144
4390,10642,30147
4391,10643,30148
4392,6933,30149
4393,6931,30152
4394,10644,30153
4395,10645,30155
4396,2672,30157
4397,10646,30167
4398,6937,30168
4399,196,30170
4400,6938,30172
4401,10647,30173
4402,10648,30180
4403,2544,30182
4404,10649,30184
4405,6939,30189
4406,195,30190
4407,4818,30195
4408,10650,30196
4409,6941,30198
4410,10651,30204
4411,4814,30205
4412,10652,30206
4413,2564,30211
4414,2565,30214
4415,10653,30215
4416,778,43388
4417,8877,43389
4418,15532,43393
4419,3969,43395
4420,3966,43397
4421,12000,43398
4422,4453,43401
4423,1932,43405
4424,12496,43409
4425,13595,43410
4426,2344,43415
4427,8878,43416
4428,2526,43420
4429,13584,43421
4430,15614,43423
4431,8879,43426
4432,2000,43427
4433,15021,43432
4434,8880,43433
4435,13612,43434
4436,8881,43436
4437,781,43438
4438,1523,43439
4439,8882,43442
4440,15611,43448
4441,12001,43451
4442,8883,43453
4443,3987,43454
4444,8884,43455
4445,11999,43458
4446,8885,43461
4447,8886,43466
4448,13334,19447
4449,5454,19453
4450,16140,19455
4451,11732,19456
4452,5455,19461
4453,16079,19464
4454,13338,19470
4455,5456,19471
4456,5457,19475
4457,16081,19481
4458,11949,19482
4459,5458,19485
4460,9800,19487
4461,13543,19489
4462,5459,19491
4463,16077,19494
4464,15623,19496
4465,5460,19502
4466,920,19503
4467,2050,19504
4468,5461,19507
4469,5462,19511
4470,5463,19513
4471,5464,19515
4472,10201,19516
4473,5465,19518
4474,5466,19520
4475,33,19521
4476,2301,19526
4477,10262,19531
4478,16082,19535
4479,891,19537
4480,7603,12738
4481,9335,12740
4482,2618,12742
4483,2619,12746
4484,247,12747
4485,2620,12748
4486,2621,12751
4487,2622,12753
4488,307,12754
4489,2623,12757
4490,285,12758
4491,334,12762
4492,412,12763
4493,4908,12764
4494,2624,12767
4495,400,12774
4496,2625,12775
4497,190,12782
4498,383,12783
4499,197,12785
4500,5604,12786
4501,390,12790
4502,410,12793
4503,4949,12797
4504,2626,12800
4505,9322,12802
4506,2627,12804
4507,2628,12805
4508,2629,12806
4509,5721,12808
4510,2630,12811
4511,5708,12814
4512,3574,38553
4513,8166,38555
4514,12395,38557
4515,4377,38568
4516,16242,38569
4517,1250,38572
4518,8167,38576
4519,11502,38579
4520,8168,38580
4521,8169,38581
4522,16237,38582
4523,12613,38586
4524,16243,38587
4525,8170,38588
4526,1254,38591
4527,3531,38592
4528,12829,38593
4529,8171,38596
4530,103,38597
4531,11504,38601
4532,4379,38603
4533,8172,38605
4534,8173,38608
4535,1253,38610
4536,16531,38611
4537,8174,38612
4538,8175,38616
4539,16530,38618
4540,8176,38620
4541,1061,38622
4542,8177,38626
4543,16239,38628
4544,9839,9872
4545,4610,9882
4546,11001,9883
4547,10731,9886
4548,4611,9887
4549,59,9888
4550,10724,9890
4551,4612,9893
4552,4613,9897
4553,1921,9898
4554,15499,9900
4555,15468,9902
4556,10896,9904
4557,4614,9908
4558,4615,9914
4559,1013,9921
4560,993,9928
4561,991,9929
4562,12179,9933
4563,1740,9935
4564,17275,9940
4565,990,9945
4566,4616,9946
4567,15516,9949
4568,10726,9950
4569,4617,9956
4570,15457,9966
4571,4618,9969
4572,10020,9975
4573,4619,9984
4574,15503,9985
4575,992,9987
4576,11538,38993
4577,2338,38999
4578,8227,39001
4579,2302,39002
4580,4692,39003
4581,11539,39006
4582,8229,39010
4583,11540,39011
4584,2290,39013
4585,11541,39014
4586,11542,39017
4587,8225,39018
4588,850,39019
4589,2473,39029
4590,8232,39033
4591,4729,39036
4592,8234,39037
4593,11543,39040
4594,11544,39041
4595,11545,39045
4596,837,39048
4597,8236,39059
4598,11546,39062
4599,8238,39065
4600,5446,39069
4601,11547,39073
4602,8239,39075
4603,4716,39076
4604,8240,39078
4605,839,39079
4606,11548,39080
4607,3887,39083
4608,7980,37266
4609,3279,37270
4610,7979,37271
4611,1266,37273
4612,11375,37277
4613,7981,37278
4614,11376,37281
4615,7983,37282
4616,510,37283
4617,7978,37287
4618,5299,37291
4619,7985,37296
4620,7986,37298
4621,11377,37299
4622,11378,37309
4623,7988,37314
4624,11379,37315
4625,7973,37317
4626,7989,37320
4627,11380,37321
4628,7984,37328
4629,7991,37336
4630,3468,37341
4631,11381,37343
4632,5323,37345
4633,7990,37346
4634,7994,37348
4635,4350,37349
4636,11382,37350
4637,11383,37352
4638,7982,37354
4639,3309,37360
4640,6474,27053
4641,2115,27057
4642,14017,27058
4643,10331,27059
4644,6475,27061
4645,294,27063
4646,13544,27064
4647,4182,27065
4648,2035,27067
4649,13555,27068
4650,1129,27069
4651,1127,27072
4652,1130,27075
4653,6476,27077
4654,6477,27079
4655,13884,27081
4656,6478,27084
4657,4183,27085
4658,6479,27091
4659,6480,27094
4660,1125,27096
4661,10336,27098
4662,10377,27099
4663,2053,27100
4664,3297,27101
4665,1126,27103
4666,10354,27105
4667,6481,27107
4668,6482,27109
4669,6483,27111
4670,6484,27113
4671,13549,27117
4672,8586,41527
4673,11810,41530
4674,4820,41531
4675,8592,41536
4676,3258,41541
4677,1439,41543
4678,11811,41545
4679,8595,41547
4680,11812,41549
4681,2281,41553
4682,4419,41554
4683,2273,41555
4684,8591,41556
4685,8596,41558
4686,11813,41560
4687,1365,41561
4688,11814,41562
4689,11815,41563
4690,11816,41572
4691,2278,41573
4692,11817,41574
4693,3319,41577
4694,8593,41578
4695,8597,41579
4696,11818,41582
4697,11819,41589
4698,1740,41591
4699,11820,41599
4700,3086,41601
4701,11821,41602
4702,11822,41603
4703,4422,41606
4704,14853,53844
4705,14854,53845
4706,14855,53846
4707,14856,53847
4708,194,53848
4709,14857,53849
4710,1806,53850
4711,4235,53852
4712,6878,53853
4713,2589,53857
4714,14858,53859
4715,14859,53863
4716,14860,53865
4717,14861,53866
4718,14862,53867
4719,14863,53868
4720,14864,53869
4721,793,53871
4722,14865,53873
4723,14866,53875
4724,444,53878
4725,14867,53879
4726,14868,53881
4727,14869,53882
4728,14870,53883
4729,14871,53885
4730,14872,53887
4731,14873,53891
4732,6095,53893
4733,14874,53894
4734,8602,53895
4735,14875,53897
4736,6543,27466
4737,6544,27468
4738,4030,27470
4739,1089,27477
4740,1980,27479
4741,1088,27481
4742,10378,27484
4743,77,27488
4744,6545,27491
4745,6546,27493
4746,3961,27494
4747,13507,27496
4748,3853,27498
4749,3386,27501
4750,660,27504
4751,13506,27506
4752,10379,27507
4753,6547,27510
4754,4173,27511
4755,13664,27513
4756,6548,27514
4757,6549,27516
4758,1090,27518
4759,3412,27521
4760,3360,27525
4761,1091,27529
4762,661,27531
4763,1092,27536
4764,6550,27538
4765,3697,27545
4766,13629,27546
4767,3696,27548
4768,7303,60319
4769,17280,60320
4770,7282,60322
4771,17281,60324
4772,2245,60325
4773,17282,60326
4774,17283,60328
4775,17284,60329
4776,9498,60332
4777,7236,60333
4778,17285,60334
4779,17286,60337
4780,17287,60338
4781,17288,60339
4782,7281,60340
4783,17289,60341
4784,17290,60342
4785,17291,60343
4786,17292,60346
4787,2213,60349
4788,17293,60352
4789,17294,60356
4790,17295,60358
4791,17296,60359
4792,17297,60361
4793,17298,60362
4794,7345,60363
4795,17299,60365
4796,7344,60366
4797,17300,60367
4798,17301,60368
4799,17302,60369
4800,16978,59473
4801,16979,59475
4802,16980,59477
4803,16981,59478
4804,4989,59479
4805,16982,59481
4806,1688,59482
4807,16983,59485
4808,16984,59487
4809,16985,59488
4810,16986,59492
4811,2964,59493
4812,16987,59502
4813,16988,59505
4814,16989,59506
4815,16990,59507
4816,16991,59511
4817,16992,59513
4818,16993,59514
4819,2966,59517
4820,16994,59518
4821,16995,59520
4822,6806,59521
4823,448,59525
4824,16996,59527
4825,4518,59528
4826,673,59529
4827,16997,59531
4828,3105,59534
4829,5100,59537
4830,16998,59538
4831,16999,59539
4832,12184,45357
4833,2132,45361
4834,2787,45369
4835,9137,45370
4836,9138,45371
4837,9139,45372
4838,194,45373
4839,9140,45374
4840,15149,45376
4841,2781,45377
4842,9141,45378
4843,14855,45380
4844,15148,45381
4845,9142,45386
4846,2587,45389
4847,14854,45390
4848,3841,45393
4849,14850,45397
4850,14846,45398
4851,13270,45399
4852,12188,45402
4853,9143,45408
4854,12190,45409
4855,793,45414
4856,14848,45418
4857,1799,45423
4858,12208,45424
4859,9144,45425
4860,12195,45426
4861,403,45428
4862,2746,45429
4863,1801,45430
4864,507,42659
4865,778,42761
4866,8794,42768
4867,8782,42786
4868,4446,42826
4869,564,42852
4870,4447,42871
4871,519,42886
4872,4448,42891
4873,8951,42904
4874,779,42917
4875,4449,42971
4876,136,42985
4877,4450,43013
4878,4451,43057
4879,4452,43068
4880,4453,43092
4881,8842,43146
4882,4454,43151
4883,781,43178
4884,4455,43205
4885,780,43209
4886,4456,43233
4887,4457,43256
4888,4458,43305
4889,4459,43441
4890,782,43498
4891,513,43519
4892,4460,43596
4893,783,43621
4894,4461,43624
4895,784,43632
4896,17023,59584
4897,17025,59601
4898,17026,59604
4899,17030,59611
4900,17055,59615
4901,17032,59620
4902,17037,59626
4903,17039,59634
4904,4257,59637
4905,17057,59639
4906,17040,59643
4907,17059,59644
4908,17049,59651
4909,17050,59657
4910,17048,59658
4911,17046,59662
4912,17053,59674
4913,17054,59679
4914,17058,59687
4915,11,59690
4916,17061,59693
4917,17098,59706
4918,17063,59707
4919,17064,59712
4920,17074,59732
4921,17076,59733
4922,17084,59743
4923,17082,59752
4924,17083,59755
4925,2282,59763
4926,9492,59765
4927,17108,59777
4928,9164,45609
4929,12221,45616
4930,4949,45617
4931,9174,45621
4932,9173,45623
4933,12222,45624
4934,1390,45625
4935,12223,45630
4936,3793,45631
4937,198,45632
4938,1781,45639
4939,12224,45644
4940,12225,45649
4941,9178,45656
4942,12226,45660
4943,4322,45663
4944,12227,45670
4945,12228,45674
4946,4901,45675
4947,9180,45679
4948,12229,45680
4949,1384,45681
4950,9177,45684
4951,12230,45685
4952,9182,45686
4953,1784,45687
4954,12231,45691
4955,9185,45701
4956,1385,45702
4957,9187,45705
4958,9186,45709
4959,9189,45711
4960,3298,16157
4961,7985,16161
4962,7994,16163
4963,3299,16171
4964,3300,16172
4965,3301,16174
4966,7986,16176
4967,9112,16177
4968,3302,16178
4969,7987,16179
4970,3303,16181
4971,308,16188
4972,7973,16190
4973,5270,16191
4974,7988,16196
4975,7961,16198
4976,6062,16200
4977,107,16201
4978,3304,16204
4979,3305,16205
4980,3306,16206
4981,8503,16209
4982,9106,16213
4983,5706,16214
4984,479,16215
4985,3307,16221
4986,8546,16222
4987,3308,16224
4988,3309,16227
4989,3310,16229
4990,8504,16230
4991,3311,16231
4992,8461,10652
4993,5866,10654
4994,7622,10658
4995,2270,10659
4996,2271,10661
4997,8573,10662
4998,2272,10663
4999,2273,10671
5000,2274,10673
5001,5404,10677
5002,5421,10680
5003,2275,10684
5004,6334,10686
5005,7102,10687
5006,8585,10689
5007,2276,10692
5008,0,10698
5009,8587,10700
5010,2277,10704
5011,2278,10705
5012,2279,10706
5013,6331,10708
5014,7085,10712
5015,7588,10713
5016,5832,10714
5017,8850,10715
5018,4748,10716
5019,2280,10717
5020,2281,10721
5021,6307,10723
5022,8572,10728
5023,344,10733
5024,7768,35930
5025,1640,35932
5026,4047,35935
5027,7769,35936
5028,11250,35939
5029,1959,35940
5030,4053,35941
5031,11251,35942
5032,1682,35945
5033,7771,35950
5034,7773,35955
5035,11252,35957
5036,11253,35963
5037,11254,35965
5038,7772,35968
5039,2861,35970
5040,2948,35974
5041,5084,35975
5042,11255,35981
5043,1689,35982
5044,3759,35983
5045,7776,35985
5046,7777,35989
5047,7780,35993
5048,7779,35995
5049,5074,35997
5050,3018,36002
5051,11256,36008
5052,7775,36009
5053,11257,36012
5054,5080,36020
5055,11258,36022
5056,5395,43626
5057,1291,43627
5058,4461,43643
5059,8906,43645
5060,5468,43648
5061,130,43649
5062,8907,43652
5063,4728,43655
5064,8908,43659
5065,783,43661
5066,8909,43665
5067,8910,43672
5068,8911,43677
5069,12018,43678
5070,4750,43683
5071,2491,43685
5072,4460,43688
5073,2981,43689
5074,4748,43690
5075,4562,43691
5076,12019,43694
5077,1480,43695
5078,8913,43699
5079,4462,43700
5080,12020,43701
5081,2977,43702
5082,2980,43704
5083,784,43705
5084,12021,43711
5085,8914,43713
5086,2495,43714
5087,8912,43716
5088,16593,58405
5089,509,58407
5090,16594,58409
5091,16595,58411
5092,4351,58412
5093,16596,58416
5094,16597,58417
5095,4149,58418
5096,4151,58422
5097,3378,58423
5098,6193,58426
5099,366,58427
5100,16598,58428
5101,2907,58430
5102,16599,58432
5103,16600,58433
5104,16601,58434
5105,16602,58435
5106,16603,58436
5107,16604,58438
5108,16605,58440
5109,16606,58442
5110,16607,58444
5111,16608,58445
5112,16609,58447
5113,2978,58448
5114,16610,58452
5115,458,58453
5116,16611,58454
5117,16612,58458
5118,16613,58459
5119,7367,58460
5120,13910,21341
5121,14129,21342
5122,5684,21343
5123,5685,21344
5124,9753,21347
5125,2553,21349
5126,5686,21351
5127,5687,21352
5128,9776,21353
5129,5688,21356
5130,4085,21357
5131,5689,21358
5132,2902,21360
5133,5690,21361
5134,5691,21362
5135,9757,21364
5136,15145,21365
5137,3461,21366
5138,3460,21367
5139,5692,21369
5140,5693,21371
5141,5694,21372
5142,5695,21373
5143,12479,21374
5144,13922,21376
5145,417,21379
5146,12383,21380
5147,5696,21382
5148,5697,21383
5149,3451,21387
5150,9748,21388
5151,9746,21389
5152,9297,44803
5153,4479,44804
5154,790,44809
5155,476,44832
5156,4480,44847
5157,9076,44867
5158,450,44881
5159,443,44907
5160,155,44923
5161,4481,44959
5162,9111,45042
5163,4482,45050
5164,433,45057
5165,791,45075
5166,4483,45116
5167,9421,45136
5168,9396,45183
5169,4484,45186
5170,792,45194
5171,253,45196
5172,436,45226
5173,4485,45265
5174,581,45266
5175,437,45272
5176,9172,45291
5177,9142,45384
5178,4486,45396
5179,793,45407
5180,9145,45431
5181,9149,45443
5182,402,45489
5183,9168,45508
5184,3685,18253
5185,9620,18255
5186,15162,18261
5187,5341,18269
5188,5342,18271
5189,5343,18274
5190,5344,18275
5191,13449,18276
5192,10364,18279
5193,9835,18283
5194,5345,18286
5195,9793,18291
5196,9733,18293
5197,5346,18295
5198,5347,18296
5199,5348,18297
5200,11661,18300
5201,11659,18302
5202,5349,18303
5203,5350,18305
5204,5351,18306
5205,865,18307
5206,10339,18308
5207,10351,18312
5208,5352,18314
5209,11666,18317
5210,11668,18319
5211,12959,18320
5212,9791,18323
5213,13698,18327
5214,5353,18328
5215,5354,18330
5216,6586,27785
5217,4190,27786
5218,6587,27790
5219,3679,27793
5220,6588,27796
5221,16373,27800
5222,3435,27801
5223,16359,27805
5224,10415,27809
5225,10413,27810
5226,3333,27811
5227,13836,27812
5228,16356,27816
5229,3450,27819
5230,10416,27820
5231,3449,27825
5232,16371,27826
5233,3254,27834
5234,6589,27836
5235,16259,27837
5236,3250,27840
5237,10423,27842
5238,3251,27843
5239,521,27844
5240,16255,27847
5241,1276,27851
5242,10419,27852
5243,1277,27857
5244,10424,27861
5245,6590,27865
5246,6591,27866
5247,1946,27868
5248,5460,26347
5249,10262,26350
5250,893,26352
5251,5462,26357
5252,10263,26364
5253,3569,26365
5254,891,26367
5255,4160,26369
5256,10264,26371
5257,6387,26374
5258,6266,26377
5259,6389,26380
5260,6390,26382
5261,10265,26386
5262,3568,26390
5263,10266,26392
5264,10267,26395
5265,889,26396
5266,6391,26398
5267,4158,26399
5268,890,26401
5269,10268,26402
5270,10269,26405
5271,6388,26407
5272,574,26409
5273,5364,26414
5274,3693,26416
5275,6393,26419
5276,10270,26422
5277,6394,26424
5278,10271,26426
5279,10272,26433
5280,2826,13831
5281,7197,13833
5282,2827,13834
5283,2828,13836
5284,7845,13845
5285,7194,13847
5286,2829,13851
5287,2830,13852
5288,2831,13856
5289,5100,13863
5290,8962,13865
5291,2832,13866
5292,2833,13869
5293,4989,13870
5294,2834,13871
5295,2835,13874
5296,2836,13875
5297,2837,13877
5298,2838,13878
5299,2839,13884
5300,2840,13886
5301,2841,13887
5302,2842,13889
5303,4968,13890
5304,6777,13891
5305,2843,13898
5306,2844,13899
5307,2845,13902
5308,9363,13903
5309,2846,13904
5310,2847,13906
5311,2848,13907
5312,2767,35737
5313,7733,35742
5314,4829,35746
5315,11230,35747
5316,4318,35749
5317,2563,35750
5318,7723,35752
5319,11231,35760
5320,11232,35762
5321,191,35764
5322,11233,35774
5323,7740,35776
5324,400,35783
5325,7736,35784
5326,7728,35787
5327,2577,35792
5328,7743,35795
5329,7711,35796
5330,11234,35797
5331,4328,35799
5332,7737,35800
5333,11235,35801
5334,1556,35805
5335,11236,35806
5336,7745,35809
5337,7746,35811
5338,11237,35812
5339,11238,35814
5340,7744,35815
5341,4312,35818
5342,11239,35820
5343,11240,35823
5344,15750,40131
5345,8392,40133
5346,8393,40136
5347,1172,40140
5348,11677,40141
5349,8394,40146
5350,11679,40148
5351,11678,40149
5352,1162,40151
5353,570,40154
5354,1170,40155
5355,13614,40159
5356,8395,40160
5357,3951,40165
5358,8396,40167
5359,8397,40172
5360,8398,40173
5361,8399,40174
5362,598,40176
5363,1135,40178
5364,12766,40181
5365,15950,40183
5366,4040,40185
5367,11681,40187
5368,8400,40188
5369,15958,40192
5370,8401,40195
5371,11685,40196
5372,8402,40198
5373,4017,40201
5374,8403,40203
5375,8404,40205
5376,1682,35880
5377,13003,35881
5378,4036,35882
5379,2968,35883
5380,7757,35886
5381,11324,35887
5382,7758,35890
5383,7759,35895
5384,7760,35899
5385,7761,35903
5386,3173,35905
5387,7762,35907
5388,7763,35909
5389,7764,35910
5390,3174,35911
5391,16932,35912
5392,3179,35913
5393,4053,35914
5394,7765,35915
5395,7766,35917
5396,16929,35918
5397,7767,35922
5398,13004,35923
5399,1678,35925
5400,7768,35927
5401,4047,35929
5402,16933,35931
5403,7769,35934
5404,7770,35937
5405,16936,35938
5406,16918,35944
5407,7771,35948
5408,2627,35657
5409,7720,35658
5410,2572,35661
5411,2630,35664
5412,14475,35667
5413,13162,35669
5414,418,35670
5415,7721,35671
5416,349,35674
5417,2631,35679
5418,7722,35682
5419,2628,35684
5420,14533,35688
5421,7723,35690
5422,397,35691
5423,7724,35693
5424,7725,35698
5425,14463,35699
5426,7726,35701
5427,11226,35703
5428,1559,35706
5429,7727,35709
5430,7728,35711
5431,7729,35715
5432,7730,35720
5433,14460,35722
5434,7731,35724
5435,14532,35725
5436,11229,35728
5437,396,35730
5438,190,35732
5439,2767,35734
5440,6045,9238
5441,2026,9239
5442,6922,9241
5443,2027,9243
5444,4649,9244
5445,2028,9245
5446,8570,9246
5447,2029,9248
5448,5851,9250
5449,2030,9251
5450,6872,9252
5451,266,9254
5452,8616,9258
5453,2031,9261
5454,8760,9263
5455,9170,9264
5456,8619,9265
5457,7857,9268
5458,8746,9269
5459,8917,9276
5460,2032,9277
5461,4731,9280
5462,4998,9282
5463,8864,9284
5464,2033,9286
5465,6039,9287
5466,6108,9292
5467,5231,9293
5468,2034,9295
5469,8511,9296
5470,4704,9297
5471,5357,9302
5472,5872,22763
5473,5737,22765
5474,2396,22767
5475,9890,22768
5476,4747,22769
5477,4793,22771
5478,5351,22772
5479,9891,22777
5480,9892,22779
5481,5876,22784
5482,5877,22785
5483,4810,22787
5484,9893,22791
5485,9894,22792
5486,5875,22794
5487,9895,22796
5488,9896,22799
5489,5879,22800
5490,5878,22803
5491,9897,22805
5492,4019,22810
5493,5880,22814
5494,9898,22822
5495,3719,22827
5496,2477,22828
5497,4025,22833
5498,9899,22835
5499,5882,22837
5500,5724,22838
5501,9900,22839
5502,5811,22840
5503,4046,22842
5504,708,33970
5505,4290,33974
5506,4291,33977
5507,4292,34028
5508,4293,34048
5509,4294,34058
5510,709,34085
5511,4295,34105
5512,4296,34131
5513,7495,34155
5514,8297,34182
5515,4297,34185
5516,8296,34212
5517,4298,34214
5518,711,34247
5519,4299,34253
5520,8346,34261
5521,7524,34362
5522,4300,34391
5523,7529,34430
5524,331,34431
5525,713,34454
5526,712,34471
5527,4301,34557
5528,374,34563
5529,7567,34678
5530,4302,34722
5531,4303,34793
5532,4304,34832
5533,4305,34839
5534,715,34850
5535,4306,34888
5536,11118,34747
5537,4764,34748
5538,4772,34751
5539,11119,34753
5540,11120,34754
5541,7579,34756
5542,7581,34760
5543,7584,34771
5544,11121,34772
5545,11122,34777
5546,2432,34779
5547,11123,34780
5548,11124,34788
5549,11125,34789
5550,7587,34790
5551,7490,34792
5552,1616,34799
5553,1615,34806
5554,11126,34807
5555,7590,34819
5556,2124,34820
5557,7589,34823
5558,11127,34831
5559,2100,34834
5560,4304,34836
5561,2598,34840
5562,7594,34841
5563,2270,34842
5564,11128,34846
5565,11129,34848
5566,7588,34849
5567,4305,34851
5568,2948,6490
5569,3145,6491
5570,2861,6492
5571,2963,6504
5572,2966,6523
5573,2959,6531
5574,2859,6543
5575,2851,6547
5576,2852,6551
5577,2997,6561
5578,2860,6562
5579,3051,6576
5580,3050,6580
5581,2839,6581
5582,2842,6585
5583,3037,6586
5584,4333,6590
5585,214,6595
5586,2832,6596
5587,215,6597
5588,216,6598
5589,217,6601
5590,1698,6604
5591,218,6608
5592,219,6614
5593,220,6615
5594,221,6616
5595,1776,6620
5596,222,6623
5597,2543,6626
5598,2902,6629
5599,223,6630
5600,11846,41888
5601,3494,41891
5602,8628,41892
5603,2578,41893
5604,8639,41894
5605,11847,41895
5606,8642,41897
5607,8644,41899
5608,11848,41900
5609,460,41902
5610,11849,41907
5611,8646,41914
5612,11850,41923
5613,3495,41924
5614,11851,41925
5615,388,41935
5616,1780,41936
5617,11852,41939
5618,8648,41940
5619,8649,41942
5620,3027,41946
5621,1779,41949
5622,8647,41954
5623,8651,41961
5624,8652,41962
5625,8653,41965
5626,11853,41970
5627,8654,41974
5628,1777,41975
5629,8655,41977
5630,8636,41978
5631,8627,41982
5632,509,36909
5633,11345,36910
5634,12734,36911
5635,7925,36917
5636,12730,36918
5637,12716,36919
5638,3327,36921
5639,3356,36924
5640,11349,36925
5641,508,36926
5642,1258,36932
5643,11362,36935
5644,7926,36938
5645,11352,36939
5646,7927,36941
5647,7928,36942
5648,7929,36943
5649,1098,36945
5650,1099,36947
5651,16574,36954
5652,7930,36956
5653,16568,36966
5654,1257,36969
5655,16407,36971
5656,7931,36972
5657,3948,36975
5658,16387,36977
5659,11353,36979
5660,7932,36981
5661,3947,36982
5662,7933,36984
5663,3315,36985
5664,616,22239
5665,807,22728
5666,623,23358
5667,805,23639
5668,636,24962
5669,643,25287
5670,651,26109
5671,659,26933
5672,660,27467
5673,663,27714
5674,666,28237
5675,673,29173
5676,678,30072
5677,682,30317
5678,686,30812
5679,692,31753
5680,693,32010
5681,695,32165
5682,700,32638
5683,703,32818
5684,704,33026
5685,720,35319
5686,722,35900
5687,726,36338
5688,728,36784
5689,730,37008
5690,734,37504
5691,742,38791
5692,743,38915
5693,808,39296
5694,753,40038
5695,754,40242
5696,9286,4397
5697,9263,4398
5698,4602,4399
5699,9285,4400
5700,128,4403
5701,4580,4413
5702,9264,4414
5703,9312,4416
5704,5030,4422
5705,9444,4436
5706,9327,4440
5707,9343,4445
5708,4860,4448
5709,9348,4449
5710,9334,4454
5711,4858,4457
5712,9338,4458
5713,5049,4460
5714,5067,4464
5715,9337,4471
5716,8708,4472
5717,5069,4475
5718,4799,4482
5719,1335,4483
5720,1336,4484
5721,4796,4487
5722,4797,4490
5723,1337,4495
5724,1338,4496
5725,1339,4498
5726,8623,4501
5727,4800,4503
5728,1316,43989
5729,121,43991
5730,15086,43992
5731,3825,43994
5732,15677,43995
5733,13447,43996
5734,13448,43998
5735,12068,44000
5736,3122,44001
5737,13464,44003
5738,131,44007
5739,1492,44009
5740,12053,44011
5741,8957,44012
5742,12046,44013
5743,2179,44017
5744,3119,44020
5745,15642,44021
5746,1490,44022
5747,8958,44024
5748,12617,44029
5749,8959,44030
5750,12059,44038
5751,15071,44039
5752,8960,44040
5753,12049,44041
5754,8961,44042
5755,3881,44047
5756,3880,44051
5757,8962,44052
5758,8963,44055
5759,3331,44058
5760,3449,17046
5761,8121,17047
5762,5230,17048
5763,6582,17051
5764,3450,17054
5765,9358,17055
5766,6637,17067
5767,3451,17068
5768,6635,17070
5769,3452,17074
5770,3453,17075
5771,9415,17076
5772,3454,17077
5773,5626,17080
5774,99,17085
5775,8131,17086
5776,8009,17087
5777,8091,17088
5778,3455,17089
5779,9310,17090
5780,3456,17091
5781,3457,17094
5782,6580,17098
5783,172,17102
5784,528,17107
5785,8015,17110
5786,8136,17111
5787,7995,17112
5788,3458,17113
5789,5324,17115
5790,5610,17120
5791,8117,17122
5792,8375,16573
5793,3369,16578
5794,6085,16579
5795,6254,16580
5796,3370,16583
5797,510,16584
5798,3371,16586
5799,3372,16590
5800,8843,16592
5801,3373,16596
5802,8362,16597
5803,3374,16598
5804,3375,16601
5805,495,16602
5806,3376,16603
5807,5722,16604
5808,3377,16608
5809,3378,16618
5810,477,16620
5811,6226,16621
5812,3379,16623
5813,3380,16624
5814,8692,16625
5815,3381,16627
5816,8382,16634
5817,3382,16636
5818,3383,16639
5819,3384,16642
5820,3385,16645
5821,9068,16648
5822,3386,16650
5823,6488,16651
5824,5646,21086
5825,13886,21087
5826,3138,21088
5827,14068,21089
5828,2671,21092
5829,15134,21095
5830,9778,21096
5831,5647,21097
5832,14125,21098
5833,9713,21099
5834,5648,21100
5835,5649,21103
5836,9769,21106
5837,298,21108
5838,5650,21110
5839,9770,21111
5840,5651,21112
5841,9767,21113
5842,5652,21116
5843,5653,21117
5844,5654,21119
5845,5655,21122
5846,5656,21125
5847,9747,21127
5848,15289,21135
5849,5657,21142
5850,5658,21145
5851,15180,21147
5852,14209,21150
5853,5659,21162
5854,5660,21168
5855,5661,21171
5856,4168,27320
5857,6515,27323
5858,6516,27325
5859,13720,27327
5860,6517,27331
5861,3768,27333
5862,4188,27336
5863,6518,27340
5864,10365,27341
5865,6519,27344
5866,6520,27346
5867,1093,27349
5868,6521,27350
5869,3371,27351
5870,13667,27355
5871,13986,27356
5872,6522,27359
5873,3226,27361
5874,6523,27362
5875,6524,27365
5876,6525,27366
5877,13712,27367
5878,3405,27369
5879,3403,27371
5880,13725,27372
5881,12772,27375
5882,13701,27379
5883,12803,27380
5884,6526,27381
5885,6527,27382
5886,1086,27384
5887,13591,27385
5888,6714,28734
5889,10518,28751
5890,3144,28752
5891,10519,28753
5892,1674,28754
5893,10520,28755
5894,10521,28759
5895,3083,28763
5896,3081,28765
5897,1673,28769
5898,6705,28770
5899,4203,28772
5900,1670,28776
5901,10522,28779
5902,10523,28781
5903,1671,28782
5904,1672,28785
5905,6722,28788
5906,3076,28794
5907,6724,28796
5908,6721,28797
5909,3141,28798
5910,6725,28801
5911,5031,28802
5912,6727,28813
5913,10524,28816
5914,6729,28817
5915,10525,28819
5916,213,28821
5917,10526,28825
5918,5060,28826
5919,3098,28828
5920,4362,38407
5921,8143,38412
5922,4361,38413
5923,8144,38419
5924,4374,38421
5925,8145,38422
5926,8146,38424
5927,16224,38427
5928,8147,38429
5929,3609,38432
5930,12611,38439
5931,8148,38441
5932,3608,38443
5933,8149,38444
5934,3599,38445
5935,8150,38446
5936,11512,38447
5937,8151,38450
5938,8152,38452
5939,3500,38454
5940,8153,38455
5941,16248,38456
5942,11491,38458
5943,16249,38459
5944,3278,38460
5945,1288,38464
5946,8154,38466
5947,8155,38471
5948,3257,38475
5949,16266,38476
5950,8156,38477
5951,8157,38484
5952,6147,24673
5953,3332,24675
5954,5512,24676
5955,1196,24680
5956,1198,24682
5957,10089,24684
5958,4137,24685
5959,6150,24689
5960,10090,24691
5961,631,24692
5962,6149,24693
5963,6129,24694
5964,6148,24695
5965,10091,24696
5966,10092,24697
5967,10093,24698
5968,6151,24701
5969,10094,24702
5970,3999,24703
5971,6152,24707
5972,10095,24713
5973,4133,24714
5974,4000,24715
5975,6146,24717
5976,10096,24718
5977,1195,24721
5978,10097,24723
5979,6153,24724
5980,6136,24728
5981,6156,24733
5982,10098,24739
5983,90,24741
5984,6015,23733
5985,15129,23737
5986,6016,23738
5987,6017,23739
5988,6018,23741
5989,15225,23743
5990,2989,23744
5991,6019,23746
5992,161,23747
5993,6020,23749
5994,10003,23751
5995,6021,23754
5996,1476,23755
5997,1475,23758
5998,6022,23766
5999,15122,23773
6000,482,23775
6001,6023,23776
6002,6024,23777
6003,6025,23778
6004,6026,23779
6005,10006,23782
6006,126,23786
6007,14308,23787
6008,6027,23791
6009,14310,23792
6010,10007,23793
6011,1444,23794
6012,14924,23798
6013,14321,23800
6014,15050,23801
6015,2024,23803
6016,10495,16954
6017,12462,16958
6018,1857,16963
6019,15283,16964
6020,1048,16967
6021,12608,16971
6022,5226,16974
6023,1486,16975
6024,10452,16981
6025,1049,16986
6026,10490,16997
6027,1473,16999
6028,5227,17006
6029,5228,17007
6030,11460,17011
6031,11854,17019
6032,160,17026
6033,9940,17031
6034,10493,17033
6035,9945,17036
6036,14959,17037
6037,1067,17038
6038,1042,17050
6039,1478,17053
6040,5229,17058
6041,10486,17059
6042,10374,17060
6043,5230,17061
6044,9749,17063
6045,3434,17064
6046,11457,17066
6047,9990,17069
6048,3316,45119
6049,1847,45120
6050,9103,45126
6051,9104,45127
6052,9105,45128
6053,9106,45129
6054,9107,45131
6055,1841,45137
6056,14137,45141
6057,431,45142
6058,12165,45146
6059,9108,45147
6060,13363,45148
6061,261,45152
6062,9109,45155
6063,14136,45157
6064,13353,45158
6065,9110,45159
6066,13355,45160
6067,9111,45164
6068,3096,45167
6069,9112,45168
6070,9113,45169
6071,12174,45171
6072,12171,45173
6073,1854,45177
6074,1416,45184
6075,256,45187
6076,13348,45188
6077,2801,45193
6078,14131,45199
6079,14149,45200
6080,5156,24449
6081,5019,24451
6082,6077,24452
6083,472,24453
6084,6121,24459
6085,10075,24461
6086,4093,24462
6087,313,24467
6088,6120,24470
6089,2701,24473
6090,10076,24480
6091,6125,24488
6092,10077,24489
6093,4006,24492
6094,6126,24494
6095,6128,24501
6096,6124,24504
6097,591,24508
6098,10078,24514
6099,10079,24518
6100,5503,24519
6101,4008,24527
6102,4135,24531
6103,5501,24533
6104,6131,24534
6105,2061,24545
6106,3982,24553
6107,3957,24555
6108,5519,24559
6109,1202,24561
6110,5523,24563
6111,10080,24564
6112,10965,33227
6113,3636,33229
6114,2245,33230
6115,7361,33231
6116,17311,33237
6117,10966,33238
6118,2236,33240
6119,7362,33243
6120,1948,33245
6121,10968,33247
6122,7363,33253
6123,2937,33257
6124,16604,33258
6125,1639,33260
6126,16607,33261
6127,7364,33264
6128,7365,33265
6129,7366,33269
6130,13112,33271
6131,7367,33272
6132,2979,33274
6133,7368,33276
6134,10971,33281
6135,2978,33282
6136,16609,33284
6137,7369,33287
6138,7370,33288
6139,3120,33293
6140,7371,33295
6141,13105,33296
6142,7372,33298
6143,7373,33302
6144,5787,10563
6145,2261,10564
6146,5911,10565
6147,2262,10567
6148,5470,10569
6149,2263,10572
6150,7626,10573
6151,306,10580
6152,2264,10584
6153,8460,10585
6154,2265,10587
6155,7136,10588
6156,5737,10592
6157,6315,10593
6158,5826,10595
6159,2266,10597
6160,7095,10603
6161,7091,10606
6162,8566,10608
6163,2267,10611
6164,8262,10619
6165,9493,10621
6166,2268,10624
6167,2269,10625
6168,8270,10630
6169,8267,10631
6170,342,10632
6171,8579,10637
6172,7133,10639
6173,339,10640
6174,8464,10648
6175,8463,10650
6176,2269,767
6177,901,768
6178,902,770
6179,21,771
6180,903,773
6181,907,774
6182,2303,780
6183,905,781
6184,4159,783
6185,906,784
6186,3847,786
6187,900,787
6188,3846,788
6189,4158,789
6190,22,794
6191,23,798
6192,24,799
6193,25,801
6194,26,802
6195,27,806
6196,28,809
6197,29,813
6198,30,815
6199,31,817
6200,32,818
6201,3860,820
6202,896,822
6203,3716,826
6204,2340,837
6205,2341,839
6206,3858,843
6207,3855,846
6208,9819,22036
6209,12738,22041
6210,3894,22042
6211,15004,22047
6212,5772,22049
6213,1427,22050
6214,5773,22052
6215,9823,22054
6216,3490,22056
6217,5774,22057
6218,13714,22059
6219,15432,22060
6220,12619,22061
6221,5775,22063
6222,15072,22065
6223,14998,22070
6224,5776,22071
6225,3352,22072
6226,3973,22074
6227,3469,22078
6228,5777,22079
6229,1424,22081
6230,5778,22084
6231,1378,22086
6232,15502,22088
6233,5779,22089
6234,3944,22090
6235,15500,22094
6236,15007,22096
6237,5780,22098
6238,5781,22099
6239,1426,22102
6240,13382,11043
6241,13373,11044
6242,4698,11053
6243,12043,11055
6244,4699,11062
6245,13438,11063
6246,13442,11065
6247,2006,11068
6248,10221,11069
6249,4700,11073
6250,4701,11074
6251,1969,11075
6252,9527,11076
6253,4702,11090
6254,4703,11094
6255,4704,11100
6256,9869,11102
6257,4705,11103
6258,4706,11105
6259,13376,11107
6260,4707,11108
6261,4708,11111
6262,4709,11118
6263,10222,11124
6264,4710,11125
6265,4711,11127
6266,1313,11132
6267,4712,11134
6268,1312,11144
6269,16051,11150
6270,17150,11153
6271,2315,11155
6272,1605,6268
6273,1606,6269
6274,202,6270
6275,1607,6271
6276,1608,6273
6277,1609,6274
6278,1610,6278
6279,187,6279
6280,7657,6280
6281,5058,6281
6282,7434,6282
6283,1611,6283
6284,1612,6285
6285,1613,6287
6286,1614,6289
6287,1615,6291
6288,5054,6292
6289,1616,6293
6290,203,6296
6291,6812,6297
6292,1617,6300
6293,7374,6301
6294,1618,6302
6295,7373,6303
6296,7372,6304
6297,1619,6307
6298,1620,6308
6299,7384,6312
6300,1621,6313
6301,1622,6314
6302,1623,6315
6303,7400,6316
6304,71,17929
6305,8114,17939
6306,3637,17940
6307,3638,17941
6308,3639,17944
6309,9268,17947
6310,97,17948
6311,8113,17949
6312,8922,17950
6313,5636,17954
6314,8118,17955
6315,3640,17960
6316,9075,17961
6317,3641,17962
6318,98,17963
6319,5595,17964
6320,3642,17965
6321,8111,17966
6322,3643,17973
6323,3644,17978
6324,3645,17983
6325,7957,17986
6326,3646,17987
6327,3647,17995
6328,3648,18007
6329,3649,18010
6330,3650,18011
6331,3651,18013
6332,3652,18016
6333,6583,18018
6334,3653,18022
6335,8122,18023
6336,7657,35271
6337,289,35272
6338,4314,35276
6339,2889,35283
6340,5052,35286
6341,11180,35289
6342,11181,35290
6343,7661,35293
6344,7663,35294
6345,11182,35301
6346,2888,35302
6347,11183,35305
6348,7664,35308
6349,7665,35314
6350,11184,35317
6351,1550,35321
6352,1549,35329
6353,7667,35330
6354,11185,35332
6355,7668,35335
6356,11186,35337
6357,4875,35339
6358,7671,35341
6359,7672,35347
6360,4803,35348
6361,1560,35350
6362,7674,35359
6363,11187,35361
6364,1551,35362
6365,2559,35365
6366,7673,35367
6367,1548,35369
6368,1726,4258
6369,1775,4259
6370,3011,4266
6371,3077,4268
6372,1761,4269
6373,1753,4271
6374,1754,4273
6375,1748,4276
6376,1749,4277
6377,3047,4283
6378,3035,4284
6379,1750,4286
6380,3048,4289
6381,1751,4290
6382,1752,4291
6383,3008,4296
6384,4120,4298
6385,1768,4301
6386,3097,4304
6387,1770,4306
6388,1771,4309
6389,3128,4311
6390,1772,4312
6391,1736,4315
6392,3117,4316
6393,1733,4317
6394,1735,4318
6395,1773,4322
6396,1743,4323
6397,126,4324
6398,4121,4325
6399,1767,4326
6400,8708,42542
6401,11911,42556
6402,11912,42562
6403,8741,42563
6404,8742,42564
6405,11913,42571
6406,8701,42574
6407,8745,42576
6408,11914,42579
6409,2567,42582
6410,8744,42583
6411,1773,42585
6412,8739,42589
6413,11915,42590
6414,8740,42592
6415,2796,42601
6416,8748,42604
6417,11916,42605
6418,1771,42607
6419,1770,42609
6420,11917,42610
6421,8738,42611
6422,8749,42614
6423,2231,42616
6424,11918,42617
6425,8747,42621
6426,11919,42624
6427,3021,42625
6428,8746,42626
6429,305,42628
6430,3397,42629
6431,4859,42630
6432,188,14100
6433,7268,14102
6434,2885,14107
6435,2886,14109
6436,2887,14110
6437,7838,14111
6438,9382,14115
6439,8969,14120
6440,9406,14121
6441,2888,14123
6442,2889,14129
6443,2890,14131
6444,2891,14132
6445,2892,14134
6446,2893,14141
6447,5015,14142
6448,5008,14146
6449,6053,14148
6450,6057,14149
6451,2894,14150
6452,2895,14153
6453,2896,14154
6454,2897,14155
6455,2898,14156
6456,2899,14160
6457,2900,14161
6458,2901,14162
6459,2902,14163
6460,2903,14164
6461,2904,14166
6462,2905,14168
6463,2906,14172
6464,3342,16409
6465,7974,16410
6466,5225,16416
6467,7983,16417
6468,9094,16421
6469,3343,16423
6470,3344,16424
6471,3345,16427
6472,3346,16433
6473,3347,16434
6474,3348,16439
6475,9483,16440
6476,3349,16441
6477,3350,16444
6478,3351,16448
6479,7979,16451
6480,5266,16452
6481,3352,16453
6482,3353,16455
6483,3354,16456
6484,6243,16468
6485,506,16471
6486,6237,16472
6487,5347,16473
6488,7379,16474
6489,3355,16475
6490,6063,16477
6491,309,16478
6492,6228,16479
6493,3356,16480
6494,508,16481
6495,303,16483
6496,1096,2668
6497,1097,2670
6498,1098,2673
6499,1099,2674
6500,8436,2680
6501,1100,2681
6502,1101,2682
6503,8439,2683
6504,5520,2685
6505,1102,2687
6506,8427,2688
6507,1103,2690
6508,4551,2692
6509,8406,2693
6510,8399,2694
6511,8400,2697
6512,8402,2698
6513,1104,2700
6514,5505,2707
6515,5114,2712
6516,5120,2713
6517,5109,2715
6518,6464,2716
6519,6465,2717
6520,1105,2720
6521,1106,2721
6522,5161,2722
6523,6459,2723
6524,1107,2724
6525,1108,2725
6526,1109,2726
6527,6461,2728
6528,15763,56191
6529,571,56193
6530,15764,56194
6531,15765,56195
6532,570,56196
6533,15766,56197
6534,878,56199
6535,15767,56200
6536,15768,56205
6537,15769,56207
6538,15770,56208
6539,15771,56209
6540,8396,56211
6541,15772,56214
6542,15773,56217
6543,15774,56218
6544,15775,56221
6545,6354,56222
6546,1172,56223
6547,15776,56224
6548,15777,56226
6549,15778,56229
6550,15779,56233
6551,15780,56234
6552,15781,56235
6553,15782,56236
6554,15783,56237
6555,15784,56239
6556,15785,56241
6557,15786,56242
6558,15787,56244
6559,15788,56248
6560,8335,11887
6561,2478,11889
6562,8334,11890
6563,2479,11896
6564,5831,11899
6565,2480,11900
6566,5825,11902
6567,8326,11903
6568,2481,11908
6569,7,11909
6570,5860,11910
6571,8337,11911
6572,2482,11913
6573,2483,11915
6574,8336,11921
6575,5861,11928
6576,2484,11929
6577,5765,11930
6578,7678,11931
6579,7503,11932
6580,5531,11935
6581,5898,11937
6582,2485,11938
6583,9492,11939
6584,2486,11940
6585,2487,11942
6586,2488,11943
6587,2489,11944
6588,2490,11951
6589,379,11952
6590,2491,11954
6591,5896,11956
6592,2631,12818
6593,6061,12819
6594,183,12821
6595,2632,12822
6596,291,12823
6597,4935,12826
6598,2633,12830
6599,2634,12840
6600,5696,12842
6601,6956,12845
6602,293,12847
6603,2635,12848
6604,2636,12852
6605,2637,12853
6606,2638,12854
6607,2639,12856
6608,4980,12859
6609,2640,12861
6610,2641,12864
6611,2642,12865
6612,2643,12866
6613,2644,12867
6614,2645,12869
6615,5027,12872
6616,2646,12876
6617,2647,12882
6618,2648,12885
6619,9317,12886
6620,2649,12887
6621,2650,12892
6622,2651,12895
6623,2652,12898
6624,11318,36655
6625,7885,36656
6626,1691,36657
6627,7886,36660
6628,7887,36662
6629,11319,36672
6630,3017,36673
6631,11320,36675
6632,7891,36677
6633,3015,36678
6634,7889,36679
6635,11321,36681
6636,11322,36686
6637,2842,36688
6638,11323,36690
6639,3031,36694
6640,7894,36697
6641,3092,36700
6642,7893,36702
6643,11324,36703
6644,1692,36704
6645,11325,36705
6646,11326,36706
6647,11327,36708
6648,7892,36709
6649,11328,36710
6650,2839,36711
6651,11329,36712
6652,11330,36713
6653,7881,36714
6654,5448,36715
6655,11331,36717
6656,2445,11711
6657,7035,11715
6658,7076,11716
6659,2446,11719
6660,2447,11731
6661,9158,11732
6662,2448,11735
6663,2449,11738
6664,2450,11746
6665,24,11748
6666,2451,11752
6667,2452,11753
6668,2453,11756
6669,2454,11761
6670,8329,11767
6671,5822,11769
6672,352,11770
6673,2455,11775
6674,7110,11777
6675,7124,11778
6676,7125,11779
6677,8327,11781
6678,2456,11786
6679,377,11787
6680,8344,11788
6681,8342,11790
6682,2457,11791
6683,5835,11793
6684,2458,11799
6685,5834,11803
6686,7681,11808
6687,2459,11809
6688,8446,40472
6689,8448,40475
6690,33,40481
6691,8444,40483
6692,11710,40486
6693,8449,40488
6694,5439,40496
6695,11711,40500
6696,916,40503
6697,11712,40506
6698,3879,40508
6699,3321,40510
6700,3878,40512
6701,4393,40515
6702,11713,40517
6703,8453,40520
6704,11714,40521
6705,4400,40523
6706,1121,40524
6707,8454,40526
6708,8451,40529
6709,11715,40531
6710,917,40533
6711,11716,40534
6712,8452,40538
6713,3339,40539
6714,8456,40542
6715,3900,40544
6716,5433,40545
6717,8457,40548
6718,11717,40551
6719,5449,40555
6720,4382,38927
6721,4383,38936
6722,4384,38959
6723,8228,38994
6724,4385,38996
6725,4386,39026
6726,1,39030
6727,8324,39071
6728,743,39074
6729,8306,39117
6730,744,39128
6731,4387,39186
6732,573,39227
6733,4388,39259
6734,8276,39318
6735,4389,39323
6736,4,39361
6737,710,39434
6738,346,39442
6739,747,39457
6740,8320,39462
6741,348,39511
6742,4390,39529
6743,8307,39536
6744,4391,39733
6745,8350,39750
6746,748,39804
6747,4392,39836
6748,749,39849
6749,750,39881
6750,8365,39919
6751,8408,39933
6752,616,22375
6753,617,22394
6754,618,22411
6755,619,22583
6756,620,22939
6757,4116,23022
6758,621,23127
6759,622,23256
6760,623,23373
6761,624,23441
6762,625,23958
6763,626,23982
6764,627,24137
6765,628,24266
6766,4132,24322
6767,629,24371
6768,630,24403
6769,4136,24476
6770,4135,24483
6771,631,24515
6772,632,24550
6773,633,24557
6774,634,24835
6775,635,24855
6776,636,24970
6777,637,25098
6778,638,25121
6779,639,25153
6780,640,25257
6781,641,25271
6782,642,25283
6783,643,25297
6784,4186,50334
6785,1124,50335
6786,13538,50339
6787,13539,50340
6788,3859,50341
6789,13540,50342
6790,13541,50345
6791,13542,50346
6792,13543,50347
6793,13544,50349
6794,13545,50351
6795,13546,50353
6796,13547,50356
6797,6475,50362
6798,13548,50363
6799,6002,50367
6800,13549,50368
6801,13550,50370
6802,13551,50371
6803,5938,50374
6804,5451,50376
6805,1131,50378
6806,13552,50379
6807,13553,50380
6808,13554,50381
6809,1077,50382
6810,13555,50384
6811,8242,50386
6812,13556,50388
6813,13557,50389
6814,13558,50391
6815,3166,50392
6816,6967,30392
6817,2004,30400
6818,2540,30401
6819,4825,30402
6820,6969,30405
6821,4831,30406
6822,6964,30407
6823,2552,30408
6824,10670,30409
6825,6970,30413
6826,6965,30415
6827,10671,30417
6828,10672,30418
6829,2574,30420
6830,6972,30425
6831,1795,30427
6832,6973,30431
6833,10673,30432
6834,10674,30434
6835,6974,30438
6836,6975,30443
6837,4938,30444
6838,1796,30447
6839,10675,30455
6840,10676,30457
6841,10677,30458
6842,2103,30460
6843,6977,30461
6844,6978,30463
6845,2758,30470
6846,10678,30476
6847,6980,30478
6848,694,32153
6849,695,32209
6850,696,32368
6851,4266,32395
6852,697,32434
6853,698,32502
6854,699,32576
6855,4270,32615
6856,700,32671
6857,701,32687
6858,702,32752
6859,703,32840
6860,4274,32894
6861,4275,33003
6862,704,33070
6863,4279,33151
6864,705,33270
6865,4281,33290
6866,706,33470
6867,4517,33571
6868,4516,33710
6869,4514,33757
6870,707,33794
6871,708,33811
6872,4509,33995
6873,709,34036
6874,4294,34054
6875,710,34099
6876,711,34183
6877,4298,34211
6878,712,34332
6879,713,34415
6880,2865,1339
6881,1629,1340
6882,2874,1342
6883,1630,1346
6884,44,1348
6885,2876,1350
6886,1575,1353
6887,4303,1354
6888,2909,1356
6889,2992,1357
6890,1586,1360
6891,1628,1361
6892,1587,1362
6893,3173,1364
6894,3174,1365
6895,1626,1366
6896,1588,1367
6897,45,1368
6898,3179,1369
6899,1640,1370
6900,1678,1372
6901,1679,1373
6902,1618,1374
6903,1681,1375
6904,3118,1376
6905,46,1378
6906,1585,1380
6907,3159,1382
6908,1589,1383
6909,1636,1385
6910,1576,1388
6911,1577,1389
6912,15935,56658
6913,15936,56659
6914,15937,56660
6915,8414,56663
6916,15938,56664
6917,15939,56668
6918,15940,56669
6919,599,56672
6920,5488,56673
6921,754,56675
6922,15941,56676
6923,15942,56677
6924,15943,56679
6925,15944,56682
6926,3920,56684
6927,15945,56686
6928,4140,56689
6929,15946,56690
6930,15947,56691
6931,15948,56692
6932,1171,56693
6933,598,56695
6934,15949,56696
6935,15950,56697
6936,15951,56701
6937,8407,56704
6938,596,56705
6939,15952,56706
6940,15953,56707
6941,15954,56708
6942,569,56711
6943,15955,56713
6944,1978,25512
6945,10268,25513
6946,6264,25515
6947,13422,25516
6948,6265,25523
6949,15989,25526
6950,13404,25527
6951,36,25530
6952,10195,25531
6953,13405,25533
6954,6266,25535
6955,6267,25536
6956,6268,25537
6957,6269,25539
6958,6270,25541
6959,2341,25544
6960,6271,25547
6961,16127,25549
6962,3536,25550
6963,896,25551
6964,16129,25552
6965,15988,25553
6966,6272,25555
6967,6273,25556
6968,898,25558
6969,16058,25562
6970,358,25566
6971,16003,25573
6972,6274,25575
6973,2312,25577
6974,15999,25578
6975,6275,25583
6976,2438,31096
6977,2161,31097
6978,2414,31100
6979,7066,31102
6980,2453,31105
6981,10745,31107
6982,10746,31109
6983,7068,31110
6984,10747,31111
6985,10748,31112
6986,4767,31115
6987,10749,31116
6988,2456,31117
6989,7069,31121
6990,7071,31123
6991,2511,31127
6992,980,31131
6993,4243,31136
6994,10750,31137
6995,7072,31138
6996,4755,31140
6997,7073,31144
6998,4761,31145
6999,10751,31147
7000,2444,31148
7001,7074,31151
7002,10752,31153
7003,7075,31160
7004,10753,31162
7005,2141,31163
7006,7076,31166
7007,2446,31168
7008,7435,33674
7009,16628,33680
7010,11007,33681
7011,7436,33682
7012,2865,33684
7013,3367,33685
7014,477,33686
7015,2863,33689
7016,11009,33694
7017,7437,33697
7018,11010,33699
7019,7438,33706
7020,11014,33708
7021,2215,33711
7022,7439,33712
7023,11012,33713
7024,16803,33716
7025,7440,33719
7026,2917,33720
7027,13123,33722
7028,2203,33723
7029,13121,33726
7030,7441,33728
7031,16758,33729
7032,7442,33731
7033,2911,33737
7034,7443,33739
7035,7444,33742
7036,16766,33744
7037,11016,33749
7038,2913,33750
7039,7445,33752
7040,10539,9674
7041,9521,9679
7042,11914,9688
7043,9502,9693
7044,13196,9699
7045,12684,9703
7046,10449,9733
7047,12109,9735
7048,11062,9752
7049,14307,9769
7050,13297,9771
7051,1014,9775
7052,4602,9785
7053,15424,9789
7054,4603,9792
7055,13386,9802
7056,16719,9803
7057,10899,9805
7058,4604,9807
7059,931,9809
7060,17280,9817
7061,4605,9826
7062,15419,9833
7063,10720,9835
7064,10915,9836
7065,15520,9842
7066,4606,9849
7067,10967,9853
7068,4607,9866
7069,4608,9868
7070,4609,9869
7071,1010,9871
7072,12581,23056
7073,13621,23059
7074,5917,23063
7075,2363,23068
7076,560,23069
7077,15407,23073
7078,3713,23074
7079,5918,23079
7080,5919,23080
7081,3066,23081
7082,14395,23083
7083,12722,23087
7084,14964,23090
7085,5920,23091
7086,5921,23092
7087,5922,23097
7088,3077,23098
7089,5923,23102
7090,1752,23104
7091,5924,23107
7092,14940,23108
7093,12736,23110
7094,5925,23112
7095,147,23113
7096,5926,23116
7097,180,23120
7098,9933,23123
7099,14406,23129
7100,3580,23130
7101,14992,23131
7102,242,23133
7103,9963,23134
7104,15139,54567
7105,15144,54579
7106,15141,54584
7107,15169,54596
7108,15150,54615
7109,9459,54617
7110,15151,54618
7111,15154,54621
7112,15153,54624
7113,15163,54632
7114,15165,54634
7115,15155,54635
7116,15158,54640
7117,15167,54649
7118,15170,54670
7119,15175,54678
7120,15177,54688
7121,15181,54690
7122,15184,54704
7123,15185,54709
7124,4512,54712
7125,15198,54743
7126,607,54747
7127,15199,54748
7128,9460,54749
7129,799,54756
7130,3510,54764
7131,15207,54765
7132,15215,54781
7133,15211,54783
7134,15219,54803
7135,771,54814
7136,9354,7740
7137,1858,7747
7138,4840,7749
7139,7669,7750
7140,8947,7753
7141,1859,7760
7142,5772,7763
7143,7306,7770
7144,6206,7773
7145,9427,7776
7146,8774,7777
7147,5377,7784
7148,6244,7787
7149,6017,7789
7150,1860,7790
7151,7753,7791
7152,4874,7793
7153,5275,7795
7154,9272,7796
7155,9239,7800
7156,5175,7801
7157,5759,7802
7158,6023,7806
7159,7677,7808
7160,1861,7809
7161,1862,7811
7162,1863,7812
7163,5791,7814
7164,4645,7816
7165,6794,7817
7166,1864,7825
7167,4615,7827
7168,1861,46634
7169,14389,46638
7170,4495,46641
7171,2841,46642
7172,9334,46643
7173,3648,46645
7174,12321,46647
7175,9335,46652
7176,12327,46655
7177,2616,46656
7178,1709,46657
7179,1512,46659
7180,12322,46662
7181,3637,46665
7182,2846,46666
7183,12323,46668
7184,9336,46670
7185,9337,46672
7186,2838,46673
7187,13089,46674
7188,14375,46676
7189,9338,46679
7190,12339,46685
7191,9339,46691
7192,9340,46692
7193,1513,46693
7194,1707,46695
7195,9341,46696
7196,9342,46699
7197,9343,46705
7198,9344,46706
7199,14083,46709
7200,5159,16080
7201,5160,16086
7202,5161,16088
7203,5162,16097
7204,9953,16100
7205,5163,16103
7206,16265,16104
7207,1109,16108
7208,16268,16109
7209,11974,16113
7210,5164,16116
7211,1265,16120
7212,9688,16121
7213,5165,16125
7214,1150,16126
7215,16404,16128
7216,12645,16134
7217,11023,16136
7218,10169,16140
7219,1420,16147
7220,13028,16148
7221,1423,16152
7222,1419,16156
7223,1152,16165
7224,272,16167
7225,11363,16168
7226,5166,16169
7227,16510,16182
7228,5167,16184
7229,5168,16185
7230,15108,16187
7231,5169,16192
7232,15424,55329
7233,2187,55332
7234,4406,55333
7235,15425,55335
7236,8525,55336
7237,15426,55338
7238,15427,55339
7239,15428,55340
7240,1369,55341
7241,5391,55342
7242,15429,55343
7243,15430,55344
7244,15431,55348
7245,8537,55349
7246,15432,55350
7247,15433,55351
7248,15434,55353
7249,15435,55354
7250,15436,55355
7251,15437,55356
7252,5793,55359
7253,15438,55361
7254,15439,55363
7255,5783,55364
7256,15440,55367
7257,15441,55370
7258,3167,55371
7259,15442,55373
7260,15443,55374
7261,4106,55375
7262,8530,55376
7263,15444,55377
7264,3649,17914
7265,3806,17917
7266,553,17920
7267,4442,17923
7268,554,17935
7269,3643,17942
7270,3654,17953
7271,4157,17967
7272,3660,17969
7273,555,17992
7274,3652,17999
7275,3823,18006
7276,3666,18009
7277,556,18031
7278,557,18077
7279,558,18083
7280,3777,18105
7281,4347,18134
7282,4118,18190
7283,559,18196
7284,3983,18201
7285,3816,18210
7286,4075,18217
7287,3779,18236
7288,560,18240
7289,4336,18254
7290,4104,18256
7291,561,18284
7292,3781,18310
7293,3759,18311
7294,3770,18313
7295,562,18316
7296,1699,4409
7297,2538,4410
7298,1371,4412
7299,4501,4417
7300,2642,4418
7301,2636,4419
7302,1760,4420
7303,1715,4421
7304,4091,4423
7305,1702,4427
7306,2646,4429
7307,1703,4431
7308,1762,4433
7309,1763,4434
7310,2602,4435
7311,1764,4439
7312,2612,4441
7313,2655,4442
7314,1707,4446
7315,1708,4450
7316,1709,4451
7317,2622,4452
7318,2616,4453
7319,2619,4456
7320,1700,4459
7321,1711,4461
7322,1712,4462
7323,1756,4463
7324,1757,4465
7325,1713,4466
7326,1758,4469
7327,1759,4470
7328,4275,33008
7329,4276,33108
7330,4277,33132
7331,4278,33137
7332,4279,33156
7333,4280,33167
7334,7364,33263
7335,705,33277
7336,4281,33292
7337,458,33304
7338,4282,33356
7339,4283,33444
7340,706,33480
7341,7406,33516
7342,474,33554
7343,207,33678
7344,7447,33704
7345,9488,33715
7346,704,33768
7347,4284,33809
7348,4285,33810
7349,8316,33846
7350,4286,33848
7351,4287,33850
7352,4288,33857
7353,7473,33859
7354,707,33868
7355,7469,33870
7356,7464,33884
7357,370,33907
7358,4289,33935
7359,7564,33956
7360,4104,23072
7361,560,23076
7362,2636,23077
7363,3066,23082
7364,9928,23084
7365,5919,23085
7366,9929,23086
7367,9930,23094
7368,5318,23096
7369,3077,23099
7370,9931,23100
7371,9932,23101
7372,5923,23103
7373,1752,23106
7374,1401,23109
7375,5925,23114
7376,1518,23117
7377,5926,23118
7378,5924,23119
7379,5083,23121
7380,180,23122
7381,5600,23124
7382,4977,23125
7383,9933,23126
7384,3580,23132
7385,242,23141
7386,5078,23144
7387,5920,23146
7388,5921,23149
7389,9934,23151
7390,5929,23154
7391,5927,23157
7392,142,23161
7393,9935,23162
7394,5096,23167
7395,1749,23168
7396,9936,23175
7397,5933,23176
7398,9937,23177
7399,5932,23180
7400,5934,23187
7401,9938,23193
7402,5935,23194
7403,9939,23195
7404,9940,23196
7405,1748,23199
7406,9941,23200
7407,3041,23201
7408,1478,23203
7409,5936,23205
7410,320,23207
7411,5321,23208
7412,9942,23212
7413,9943,23214
7414,9944,23215
7415,1751,23219
7416,5937,23220
7417,5931,23221
7418,3578,23225
7419,5657,23227
7420,3286,23231
7421,5075,23232
7422,9945,23235
7423,469,23237
7424,10535,28921
7425,2799,28923
7426,2653,28925
7427,6739,28930
7428,291,28941
7429,6743,28942
7430,4826,28948
7431,1931,28949
7432,6744,28950
7433,10536,28951
7434,6745,28953
7435,10537,28957
7436,4876,28960
7437,1542,28961
7438,6746,28963
7439,4214,28964
7440,1983,28965
7441,2601,28969
7442,1543,28972
7443,10538,28978
7444,4890,28981
7445,10539,28982
7446,6749,28988
7447,4889,28991
7448,4862,28994
7449,6741,28995
7450,10540,28996
7451,2641,29001
7452,2643,29005
7453,4869,29008
7454,10541,29009
7455,6751,29011
7456,14747,53582
7457,14748,53583
7458,14749,53585
7459,14750,53586
7460,14751,53588
7461,14752,53589
7462,14753,53591
7463,14754,53594
7464,9029,53595
7465,4589,53597
7466,14755,53598
7467,14756,53600
7468,2807,53601
7469,14757,53602
7470,14758,53604
7471,14759,53608
7472,14760,53610
7473,14761,53612
7474,14762,53613
7475,683,53614
7476,14763,53615
7477,4955,53616
7478,14764,53619
7479,9160,53620
7480,2760,53622
7481,14765,53624
7482,1803,53626
7483,14766,53628
7484,438,53631
7485,6971,53633
7486,14767,53634
7487,9171,53635
7488,13742,42229
7489,12854,42232
7490,14338,42234
7491,8693,42235
7492,8694,42239
7493,11884,42240
7494,13759,42242
7495,2789,42247
7496,1765,42249
7497,2797,42251
7498,8695,42252
7499,8696,42255
7500,4441,42256
7501,8697,42258
7502,14982,42259
7503,8698,42260
7504,3524,42262
7505,11886,42264
7506,547,42266
7507,11888,42268
7508,1428,42274
7509,14343,42275
7510,8699,42278
7511,14985,42279
7512,3019,42281
7513,8700,42284
7514,8701,42288
7515,14326,42289
7516,11907,42290
7517,441,42293
7518,8702,42295
7519,2010,42302
7520,178,5558
7521,3739,5559
7522,3520,5564
7523,3515,5565
7524,3414,5570
7525,3596,5576
7526,3418,5577
7527,3419,5579
7528,3648,5584
7529,3206,5585
7530,3626,5588
7531,3954,5595
7532,179,5596
7533,3578,5607
