,partition,vertex
0,11718,40562
1,11719,40570
2,1071,40576
3,11720,40577
4,11721,40579
5,8458,40581
6,11722,40582
7,8360,40591
8,4392,40592
9,8461,40598
10,8463,40600
11,8464,40603
12,8462,40605
13,11723,40607
14,887,40609
15,11724,40611
16,4014,40613
17,8465,40614
18,8460,40616
19,11725,40618
20,582,40621
21,11726,40628
22,8440,40629
23,912,40634
24,11727,40635
25,8466,40636
26,8467,40641
27,1073,40642
28,4397,40643
29,11728,40644
30,11729,40646
31,11730,40649
32,4513,10967
33,2473,10969
34,2491,10970
35,2330,10972
36,2367,10973
37,3568,10974
38,3801,10977
39,4449,10980
40,3556,10994
41,4019,10999
42,350,11006
43,351,11012
44,352,11017
45,2450,11020
46,3569,11022
47,353,11023
48,2452,11024
49,4293,11027
50,4310,11033
51,354,11034
52,355,11035
53,3788,11039
54,3782,11040
55,356,11048
56,4155,11057
57,4112,11064
58,4100,11070
59,357,11078
60,358,11079
61,359,11080
62,360,11084
63,3680,11085
64,1981,18537
65,1177,18539
66,5371,18545
67,5372,18546
68,5373,18547
69,10253,18549
70,5374,18550
71,12260,18553
72,11581,18554
73,5375,18556
74,5376,18558
75,13501,18560
76,11702,18563
77,5377,18564
78,15923,18566
79,1502,18570
80,1501,18577
81,13908,18578
82,15778,18579
83,9700,18582
84,5378,18590
85,11645,18592
86,10251,18593
87,5379,18594
88,15542,18597
89,13503,18599
90,9898,18600
91,5380,18603
92,5381,18605
93,1179,18607
94,1176,18616
95,5382,18617
96,10428,27920
97,6210,27921
98,6600,27922
99,10429,27926
100,3260,27931
101,1278,27933
102,2091,27934
103,10430,27936
104,5137,27938
105,6601,27941
106,3396,27943
107,6603,27947
108,5155,27949
109,6604,27950
110,496,27951
111,4170,27953
112,4150,27956
113,10431,27957
114,10432,27958
115,10433,27961
116,6608,27968
117,5295,27969
118,10434,27971
119,10435,27973
120,10436,27974
121,6607,27976
122,10437,27978
123,3597,27984
124,6611,27989
125,6610,27991
126,10438,27993
127,1217,27996
128,6873,29738
129,2697,29739
130,2695,29740
131,10602,29743
132,6874,29744
133,6875,29748
134,2690,29752
135,13735,29754
136,1783,29756
137,10604,29757
138,14696,29760
139,4228,29767
140,10633,29770
141,1808,29773
142,10608,29778
143,6876,29779
144,10610,29782
145,2764,29784
146,6877,29786
147,6878,29789
148,2803,29790
149,14862,29792
150,2766,29793
151,2754,29794
152,6879,29798
153,2804,29800
154,6880,29805
155,13873,29806
156,2101,29809
157,6881,29810
158,13846,29813
159,6882,29814
160,10240,18332
161,1304,18338
162,2012,18339
163,2015,18350
164,9731,18355
165,11667,18359
166,5355,18361
167,11935,18363
168,9622,18366
169,10279,18369
170,12968,18372
171,5356,18378
172,10386,18382
173,871,18384
174,15824,18386
175,10264,18387
176,5357,18391
177,1295,18396
178,9927,18401
179,11756,18403
180,9910,18405
181,5358,18408
182,14,18409
183,5359,18413
184,2105,18414
185,13547,18415
186,523,18419
187,12189,18424
188,1076,18428
189,16147,18429
190,5360,18432
191,15712,18433
192,4009,27670
193,1218,27671
194,10399,27673
195,1231,27674
196,6571,27678
197,1233,27682
198,3975,27684
199,10400,27686
200,5143,27691
201,4191,27693
202,520,27696
203,6573,27697
204,10401,27698
205,10402,27700
206,6562,27701
207,10403,27711
208,10404,27712
209,1047,27713
210,3463,27716
211,3462,27718
212,3335,27720
213,1139,27722
214,3647,27725
215,3438,27727
216,10405,27729
217,6574,27733
218,6575,27734
219,6578,27747
220,6576,27750
221,6579,27751
222,3526,27752
223,10406,27753
224,7395,33449
225,7396,33450
226,7397,33451
227,3109,33452
228,7398,33455
229,12909,33460
230,12910,33463
231,7399,33464
232,7400,33466
233,1622,33469
234,3113,33472
235,11241,33478
236,2972,33481
237,10992,33482
238,7401,33489
239,7402,33490
240,7403,33491
241,7404,33497
242,16685,33498
243,1594,33500
244,706,33501
245,16615,33504
246,3111,33505
247,11006,33513
248,10993,33514
249,7405,33515
250,16716,33517
251,7406,33518
252,7407,33521
253,16795,33524
254,2945,33526
255,2947,33530
256,12052,44059
257,15729,44063
258,8964,44065
259,1333,44066
260,8965,44067
261,15726,44070
262,13478,44071
263,3897,44074
264,13502,44075
265,8966,44077
266,15727,44080
267,15732,44083
268,15731,44087
269,15082,44089
270,8967,44091
271,3330,44092
272,1332,44093
273,13453,44095
274,4448,44097
275,2256,44099
276,2479,44101
277,15657,44103
278,13495,44104
279,359,44107
280,2040,44108
281,8968,44109
282,15654,44111
283,2148,44116
284,8969,44120
285,8970,44122
286,15615,44123
287,15613,44124
288,14001,51575
289,7477,51576
290,8609,51577
291,14002,51578
292,14003,51582
293,14004,51583
294,14005,51587
295,14006,51588
296,14007,51590
297,14008,51591
298,14009,51592
299,605,51594
300,14010,51595
301,308,51596
302,14011,51597
303,14012,51599
304,14013,51602
305,14014,51604
306,14015,51606
307,14016,51609
308,14017,51611
309,14018,51613
310,2115,51614
311,14019,51615
312,14020,51616
313,14021,51617
314,14022,51618
315,2902,51622
316,143,51624
317,14023,51625
318,14024,51626
319,2543,51627
320,5713,21581
321,5644,21582
322,3461,21583
323,5653,21585
324,5714,21591
325,9769,21592
326,298,21593
327,9770,21594
328,3996,21596
329,5717,21598
330,1920,21605
331,5699,21606
332,9771,21607
333,5571,21609
334,5712,21611
335,5313,21618
336,9772,21619
337,2668,21620
338,9773,21621
339,5684,21626
340,5685,21628
341,2099,21631
342,9774,21634
343,417,21636
344,1418,21637
345,5683,21638
346,9775,21640
347,5711,21642
348,9776,21644
349,9777,21646
350,5719,21647
351,9778,21649
352,3675,54978
353,606,54980
354,9461,54983
355,9258,54985
356,15285,54986
357,15286,54992
358,15287,54993
359,15288,54997
360,15289,55000
361,15290,55001
362,15291,55002
363,3623,55003
364,3373,55004
365,15292,55006
366,3630,55009
367,15293,55010
368,15294,55011
369,15295,55012
370,9300,55013
371,15296,55014
372,9298,55016
373,15297,55017
374,15298,55022
375,15299,55023
376,15300,55024
377,3707,55026
378,15301,55027
379,8918,55028
380,8919,55029
381,15302,55030
382,15303,55033
383,15304,55035
384,4949,13685
385,1824,13686
386,14869,13687
387,12214,13689
388,1831,13690
389,14843,13693
390,4950,13696
391,10650,13698
392,13853,13700
393,12373,13706
394,4951,13709
395,14847,13710
396,2724,13714
397,10607,13716
398,10660,13718
399,12249,13724
400,14825,13727
401,14840,13728
402,4952,13730
403,4953,13731
404,14832,13735
405,14781,13736
406,11779,13739
407,11915,13740
408,14826,13742
409,10616,13744
410,1830,13752
411,2741,13753
412,4954,13757
413,11893,13760
414,14861,13762
415,4955,13763
416,11709,19543
417,15692,19545
418,5467,19547
419,5468,19549
420,11283,19550
421,10289,19552
422,5469,19554
423,5470,19555
424,15868,19559
425,2116,19561
426,11392,19565
427,10121,19566
428,10112,19567
429,1204,19572
430,15592,19575
431,5471,19579
432,5472,19580
433,5473,19581
434,11976,19585
435,10114,19586
436,1411,19588
437,2287,19593
438,5474,19596
439,15889,19606
440,1209,19607
441,2096,19610
442,10120,19613
443,15606,19618
444,15883,19619
445,14016,19625
446,5475,19631
447,5476,19635
448,8554,4615
449,5388,4616
450,8702,4622
451,8700,4624
452,4581,4625
453,1371,4627
454,1372,4628
455,8703,4630
456,1373,4632
457,5020,4636
458,8697,4639
459,8709,4641
460,5569,4643
461,8718,4645
462,8534,4649
463,8545,4650
464,1374,4652
465,8520,4654
466,4650,4658
467,5795,4659
468,1375,4663
469,5797,4666
470,8541,4667
471,5798,4668
472,4771,4673
473,1376,4676
474,5817,4678
475,5812,4679
476,9467,4680
477,4637,4683
478,5789,4684
479,1377,4686
480,13079,25071
481,6202,25073
482,6203,25074
483,16579,25075
484,483,25076
485,1244,25079
486,10141,25080
487,6204,25081
488,6205,25084
489,10168,25085
490,1248,25087
491,16552,25088
492,10143,25091
493,87,25092
494,479,25094
495,522,25096
496,10144,25097
497,6206,25101
498,10184,25102
499,3684,25104
500,108,25109
501,16507,25110
502,6207,25111
503,10163,25112
504,13117,25113
505,16427,25115
506,16537,25116
507,498,25120
508,16244,25122
509,6208,25124
510,488,25128
511,6209,25131
512,8369,2600
513,5206,2603
514,1083,2604
515,1084,2605
516,5387,2606
517,5203,2607
518,1085,2609
519,1086,2610
520,8374,2611
521,1087,2612
522,8425,2613
523,5176,2614
524,8492,2620
525,1088,2623
526,5502,2627
527,1089,2629
528,8477,2630
529,5508,2631
530,5509,2633
531,1090,2636
532,8490,2637
533,1091,2641
534,1092,2642
535,1093,2644
536,8487,2645
537,8489,2646
538,1094,2647
539,8417,2648
540,8435,2649
541,8029,2654
542,5118,2656
543,1095,2659
544,6474,27053
545,2115,27057
546,14017,27058
547,10331,27059
548,6475,27061
549,294,27063
550,13544,27064
551,4182,27065
552,2035,27067
553,13555,27068
554,1129,27069
555,1127,27072
556,1130,27075
557,6476,27077
558,6477,27079
559,13884,27081
560,6478,27084
561,4183,27085
562,6479,27091
563,6480,27094
564,1125,27096
565,10336,27098
566,10377,27099
567,2053,27100
568,3297,27101
569,1126,27103
570,10354,27105
571,6481,27107
572,6482,27109
573,6483,27111
574,6484,27113
575,13549,27117
576,186,12900
577,5586,12903
578,2653,12904
579,5568,12910
580,2654,12918
581,199,12922
582,4983,12925
583,9308,12927
584,2655,12930
585,2656,12935
586,7670,12938
587,2657,12939
588,2658,12942
589,2659,12947
590,397,12949
591,5686,12950
592,9000,12951
593,7010,12956
594,2660,12958
595,2661,12959
596,9437,12960
597,5697,12961
598,2662,12963
599,2663,12967
600,2664,12968
601,6917,12970
602,9042,12971
603,2665,12973
604,9213,12977
605,389,12978
606,425,12979
607,9005,12981
608,7704,13522
609,7706,13524
610,6975,13525
611,7703,13528
612,2768,13529
613,435,13530
614,6976,13533
615,2769,13536
616,2770,13539
617,2771,13540
618,7676,13549
619,2772,13550
620,2773,13551
621,7674,13552
622,2774,13557
623,298,13558
624,6974,13561
625,2775,13563
626,2776,13565
627,9219,13566
628,2777,13567
629,2778,13569
630,2779,13570
631,2780,13571
632,9143,13575
633,8706,13576
634,248,13577
635,386,13578
636,8693,13579
637,9133,13580
638,421,13582
639,416,13585
640,15302,43771
641,8925,43773
642,12030,43774
643,12028,43775
644,4451,43776
645,12041,43777
646,8926,43778
647,8927,43779
648,2550,43782
649,768,43784
650,12714,43787
651,8928,43789
652,8929,43791
653,12037,43797
654,14901,43799
655,8930,43800
656,12031,43803
657,8931,43810
658,14904,43811
659,1344,43813
660,381,43820
661,8932,43821
662,15308,43822
663,555,43827
664,12802,43828
665,15396,43829
666,13516,43830
667,15394,43831
668,8933,43833
669,1484,43835
670,8934,43839
671,3294,43840
672,12233,45659
673,4322,45661
674,4052,45662
675,4015,45664
676,14694,45665
677,2154,45666
678,9179,45667
679,12238,45668
680,9180,45671
681,12228,45672
682,9181,45673
683,14700,45677
684,1384,45678
685,9182,45682
686,13198,45683
687,12237,45689
688,9183,45690
689,9184,45692
690,12232,45693
691,9185,45696
692,9186,45697
693,4027,45698
694,12253,45699
695,14689,45700
696,9187,45703
697,15172,45704
698,14691,45706
699,9188,45707
700,15171,45708
701,9189,45710
702,9190,45712
703,9191,45713
704,6337,57075
705,16082,57076
706,16083,57077
707,16084,57081
708,16085,57082
709,6384,57084
710,16086,57087
711,16087,57088
712,16088,57090
713,579,57092
714,16089,57094
715,873,57095
716,16090,57096
717,872,57097
718,16091,57098
719,16092,57100
720,16093,57101
721,9470,57102
722,16094,57106
723,16095,57108
724,16096,57109
725,356,57110
726,4404,57111
727,16097,57112
728,16098,57113
729,875,57114
730,9476,57116
731,4165,57118
732,4701,57120
733,16099,57123
734,16100,57124
735,909,57129
736,3837,42903
737,1469,42909
738,8795,42912
739,4418,42913
740,11946,42918
741,5000,42924
742,11947,42925
743,8804,42932
744,8805,42937
745,8808,42939
746,8806,42944
747,2481,42945
748,8801,42948
749,4408,42950
750,4405,42952
751,8811,42956
752,1479,42957
753,8798,42959
754,1331,42960
755,5464,42961
756,779,42962
757,8812,42964
758,11948,42967
759,134,42970
760,5458,42972
761,2288,42976
762,8814,42980
763,11949,42984
764,11950,42995
765,3963,42996
766,4447,42998
767,11951,42999
768,10037,24113
769,5568,24115
770,10038,24116
771,6063,24117
772,6072,24118
773,6050,24119
774,3430,24120
775,6042,24122
776,10039,24128
777,4123,24130
778,6076,24132
779,5131,24134
780,10040,24136
781,10041,24142
782,10042,24144
783,1509,24145
784,1726,24147
785,6074,24148
786,10043,24153
787,10044,24156
788,4084,24159
789,6075,24160
790,10045,24163
791,10046,24164
792,140,24170
793,5133,24171
794,4126,24172
795,10047,24176
796,1968,24180
797,6083,24182
798,6084,24184
799,1508,24185
800,8549,41218
801,8550,41221
802,8551,41223
803,11789,41231
804,11790,41232
805,11791,41238
806,8554,41243
807,4407,41245
808,1727,41248
809,8547,41251
810,8556,41253
811,8546,41257
812,8544,41260
813,5289,41264
814,8557,41277
815,3423,41281
816,11792,41287
817,11793,41288
818,11794,41290
819,8558,41291
820,11795,41298
821,2666,41301
822,8559,41302
823,8560,41309
824,3292,41314
825,2200,41316
826,11796,41324
827,11797,41326
828,2214,41327
829,4412,41328
830,11798,41336
831,3425,41337
832,5310,17825
833,1395,17827
834,5311,17829
835,14887,17831
836,1445,17833
837,14888,17834
838,12467,17837
839,11791,17853
840,16361,17854
841,1518,17855
842,12349,17856
843,15297,17857
844,3420,17858
845,5312,17861
846,12750,17862
847,10405,17866
848,12385,17867
849,1429,17873
850,9653,17877
851,13789,17878
852,10473,17879
853,3206,17880
854,5313,17882
855,1068,17887
856,5314,17888
857,3625,17890
858,5315,17892
859,5316,17893
860,1433,17902
861,9935,17904
862,5317,17913
863,96,17918
864,14820,29892
865,13850,29895
866,4230,29897
867,2798,29898
868,2660,29899
869,10618,29902
870,6895,29903
871,6896,29906
872,2795,29907
873,2792,29910
874,6897,29911
875,2683,29917
876,2793,29918
877,6898,29920
878,10623,29921
879,2773,29922
880,10619,29923
881,6899,29925
882,14706,29926
883,10620,29928
884,13772,29930
885,6900,29931
886,14746,29932
887,14748,29933
888,2809,29934
889,14753,29935
890,2807,29936
891,6901,29938
892,4088,29942
893,14749,29948
894,6902,29950
895,14743,29951
896,3749,18689
897,3750,18692
898,8405,18695
899,3751,18696
900,8404,18697
901,3752,18704
902,3753,18705
903,8392,18706
904,6347,18707
905,17,18710
906,6348,18711
907,3754,18712
908,8389,18716
909,8280,18728
910,8300,18730
911,8370,18733
912,3755,18734
913,6346,18739
914,8368,18740
915,8877,18743
916,6359,18745
917,3756,18746
918,3757,18748
919,3758,18751
920,5914,18754
921,3759,18755
922,8895,18757
923,7890,18759
924,8222,18760
925,8383,18761
926,8384,18763
927,3760,18770
928,5159,16080
929,5160,16086
930,5161,16088
931,5162,16097
932,9953,16100
933,5163,16103
934,16265,16104
935,1109,16108
936,16268,16109
937,11974,16113
938,5164,16116
939,1265,16120
940,9688,16121
941,5165,16125
942,1150,16126
943,16404,16128
944,12645,16134
945,11023,16136
946,10169,16140
947,1420,16147
948,13028,16148
949,1423,16152
950,1419,16156
951,1152,16165
952,272,16167
953,11363,16168
954,5166,16169
955,16510,16182
956,5167,16184
957,5168,16185
958,15108,16187
959,5169,16192
960,3675,5115
961,1486,5116
962,1410,5117
963,1412,5118
964,1405,5119
965,3904,5141
966,4477,5146
967,3766,5149
968,3215,5150
969,3421,5154
970,157,5157
971,3530,5159
972,158,5161
973,159,5162
974,160,5171
975,161,5172
976,162,5176
977,163,5178
978,164,5179
979,1436,5181
980,1493,5183
981,3657,5184
982,1487,5185
983,3484,5186
984,4080,5189
985,1480,5191
986,1482,5194
987,3498,5195
988,1483,5199
989,3464,5200
990,1492,5207
991,1484,5208
992,9286,4397
993,9263,4398
994,4602,4399
995,9285,4400
996,128,4403
997,4580,4413
998,9264,4414
999,9312,4416
1000,5030,4422
1001,9444,4436
1002,9327,4440
1003,9343,4445
1004,4860,4448
1005,9348,4449
1006,9334,4454
1007,4858,4457
1008,9338,4458
1009,5049,4460
1010,5067,4464
1011,9337,4471
1012,8708,4472
1013,5069,4475
1014,4799,4482
1015,1335,4483
1016,1336,4484
1017,4796,4487
1018,4797,4490
1019,1337,4495
1020,1338,4496
1021,1339,4498
1022,8623,4501
1023,4800,4503
1024,9211,12985
1025,9006,12987
1026,5562,12989
1027,2666,12992
1028,2667,12994
1029,9203,12995
1030,6901,12997
1031,2668,13000
1032,2669,13001
1033,2670,13002
1034,2671,13003
1035,2672,13007
1036,5640,13010
1037,2673,13012
1038,2674,13013
1039,6977,13014
1040,398,13017
1041,2675,13018
1042,6933,13019
1043,2676,13020
1044,2677,13021
1045,6748,13024
1046,2678,13025
1047,2679,13027
1048,2680,13033
1049,9033,13035
1050,5713,13036
1051,9035,13038
1052,8521,13042
1053,5715,13049
1054,6858,13055
1055,2681,13060
1056,7286,32709
1057,7285,32711
1058,925,32714
1059,10920,32715
1060,10921,32718
1061,4241,32721
1062,7288,32722
1063,7289,32725
1064,10922,32726
1065,2145,32729
1066,4638,32730
1067,2052,32731
1068,325,32734
1069,4269,32735
1070,4263,32736
1071,2819,32738
1072,10923,32739
1073,924,32742
1074,5602,32744
1075,10924,32745
1076,10925,32748
1077,7292,32755
1078,4606,32756
1079,7294,32758
1080,10926,32761
1081,3565,32771
1082,7293,32774
1083,7297,32775
1084,10927,32776
1085,10928,32780
1086,7298,32781
1087,10929,32784
1088,14164,52019
1089,5570,52020
1090,4076,52021
1091,14165,52022
1092,14166,52023
1093,14167,52027
1094,9093,52029
1095,14168,52030
1096,14169,52033
1097,14170,52034
1098,14171,52035
1099,9091,52036
1100,14172,52037
1101,14173,52039
1102,14174,52042
1103,259,52044
1104,14175,52045
1105,14176,52047
1106,14177,52048
1107,5715,52051
1108,2671,52052
1109,14178,52053
1110,4849,52054
1111,14179,52056
1112,14180,52060
1113,2719,52061
1114,14181,52062
1115,2736,52064
1116,14182,52065
1117,14183,52068
1118,14184,52069
1119,231,52071
1120,4231,53356
1121,14671,53364
1122,14672,53366
1123,14674,53372
1124,14677,53377
1125,14683,53392
1126,14758,53409
1127,9449,53418
1128,794,53430
1129,14699,53435
1130,14701,53444
1131,14718,53463
1132,14712,53464
1133,14705,53472
1134,434,53479
1135,14707,53481
1136,14711,53489
1137,14717,53500
1138,14723,53504
1139,9450,53520
1140,14726,53525
1141,2700,53533
1142,14738,53534
1143,14732,53541
1144,14747,53580
1145,14766,53605
1146,14760,53606
1147,14759,53607
1148,683,53611
1149,14767,53617
1150,438,53627
1151,437,53640
1152,1147,2929
1153,1148,2930
1154,4006,2932
1155,1149,2934
1156,4008,2940
1157,1146,2941
1158,1144,2943
1159,3971,2944
1160,1155,2946
1161,4007,2947
1162,3998,2948
1163,4001,2949
1164,82,2950
1165,1197,2951
1166,3276,2952
1167,1203,2953
1168,1286,2954
1169,1287,2955
1170,1187,2956
1171,1188,2957
1172,83,2958
1173,3974,2961
1174,3205,2962
1175,3204,2963
1176,1189,2964
1177,3210,2966
1178,1190,2967
1179,3956,2970
1180,4339,2974
1181,3298,2975
1182,3967,2983
1183,1191,2985
1184,6766,29130
1185,2910,29133
1186,6767,29135
1187,16972,29138
1188,6768,29141
1189,6769,29143
1190,6770,29148
1191,3106,29150
1192,10555,29152
1193,16963,29153
1194,6771,29157
1195,6772,29163
1196,16997,29164
1197,12971,29168
1198,6773,29170
1199,16999,29174
1200,4221,29176
1201,4220,29181
1202,1620,29184
1203,16986,29185
1204,6774,29189
1205,6775,29191
1206,16974,29193
1207,3112,29194
1208,6776,29198
1209,6777,29200
1210,6778,29206
1211,12997,29207
1212,6779,29209
1213,6780,29211
1214,6781,29213
1215,6782,29215
1216,4918,44516
1217,12102,44517
1218,12103,44518
1219,2707,44519
1220,9020,44531
1221,12104,44537
1222,9022,44539
1223,2702,44540
1224,9023,44542
1225,9004,44543
1226,12105,44544
1227,12106,44545
1228,2095,44546
1229,9024,44550
1230,9018,44551
1231,5064,44559
1232,9015,44562
1233,2068,44568
1234,9026,44569
1235,9016,44570
1236,12107,44580
1237,9032,44582
1238,9030,44583
1239,12108,44588
1240,9033,44590
1241,2591,44592
1242,3904,44594
1243,2676,44603
1244,12109,44609
1245,9036,44612
1246,12110,44615
1247,12111,44616
1248,14063,46918
1249,12369,46919
1250,3359,46923
1251,9380,46926
1252,259,46931
1253,1833,46932
1254,4484,46935
1255,3020,46936
1256,9381,46937
1257,9382,46939
1258,12366,46940
1259,12354,46941
1260,14067,46945
1261,12367,46946
1262,14180,46949
1263,12981,46951
1264,4504,46952
1265,12951,46956
1266,14071,46958
1267,1909,46961
1268,12360,46962
1269,3493,46963
1270,9383,46964
1271,12726,46965
1272,1815,46967
1273,1393,46971
1274,14189,46973
1275,401,46974
1276,12359,46975
1277,14188,46976
1278,15252,46983
1279,2698,46984
1280,11484,38376
1281,1236,38378
1282,11485,38382
1283,11486,38385
1284,112,38388
1285,1281,38391
1286,5248,38394
1287,8141,38400
1288,1280,38403
1289,8142,38404
1290,5147,38411
1291,5273,38414
1292,11487,38415
1293,8143,38416
1294,1282,38423
1295,7949,38425
1296,8145,38428
1297,7932,38431
1298,11488,38435
1299,3609,38437
1300,8147,38440
1301,3208,38442
1302,8149,38448
1303,8150,38449
1304,8151,38451
1305,8152,38453
1306,11489,38457
1307,3278,38461
1308,11490,38462
1309,11491,38463
1310,1288,38465
1311,8154,38469
1312,13133,46460
1313,2639,46461
1314,12307,46462
1315,3419,46466
1316,12302,46470
1317,3592,46471
1318,9308,46473
1319,15206,46474
1320,9309,46476
1321,15201,46477
1322,217,46478
1323,1763,46483
1324,15200,46484
1325,2637,46494
1326,9310,46496
1327,12305,46497
1328,4445,46499
1329,15196,46502
1330,1760,46505
1331,9311,46507
1332,4501,46508
1333,9312,46509
1334,9313,46510
1335,9314,46512
1336,14385,46513
1337,2951,46521
1338,9315,46525
1339,9316,46530
1340,9317,46534
1341,9318,46540
1342,14356,46542
1343,9319,46546
1344,12828,48407
1345,12833,48408
1346,9416,48414
1347,12839,48415
1348,12836,48420
1349,12834,48432
1350,12853,48446
1351,12851,48461
1352,13625,48490
1353,12861,48494
1354,12921,48516
1355,12869,48519
1356,12872,48523
1357,12896,48541
1358,9417,48543
1359,12878,48546
1360,12895,48548
1361,12894,48568
1362,3022,48569
1363,12900,48589
1364,465,48590
1365,12913,48592
1366,12912,48597
1367,9418,48598
1368,12923,48604
1369,12904,48612
1370,12982,48634
1371,12917,48641
1372,9419,48649
1373,12922,48658
1374,464,48662
1375,12924,48663
1376,8374,40011
1377,1179,40013
1378,11656,40014
1379,1178,40017
1380,8380,40019
1381,3732,40020
1382,8378,40026
1383,11657,40027
1384,4061,40030
1385,3765,40033
1386,11658,40042
1387,8372,40043
1388,11659,40048
1389,3702,40049
1390,865,40051
1391,5352,40052
1392,3994,40053
1393,11660,40055
1394,11661,40057
1395,11662,40062
1396,5349,40063
1397,11663,40067
1398,8383,40069
1399,11664,40070
1400,11665,40074
1401,11666,40075
1402,1107,40083
1403,8386,40084
1404,11667,40087
1405,11668,40088
1406,3704,40092
1407,860,40096
1408,8824,43027
1409,8825,43028
1410,13677,43029
1411,11959,43030
1412,1329,43031
1413,8826,43032
1414,15700,43036
1415,1328,43037
1416,13684,43038
1417,8827,43039
1418,8828,43041
1419,125,43044
1420,8829,43045
1421,3962,43048
1422,15693,43053
1423,8830,43055
1424,11960,43058
1425,8831,43059
1426,11962,43064
1427,1330,43066
1428,4452,43069
1429,8832,43072
1430,15537,43077
1431,11963,43080
1432,8833,43081
1433,8834,43082
1434,15026,43087
1435,13647,43090
1436,3281,43095
1437,15608,43097
1438,11966,43098
1439,2300,43101
1440,7772,35949
1441,16964,35951
1442,7773,35952
1443,11252,35953
1444,16971,35958
1445,11254,35961
1446,7774,35962
1447,16969,35967
1448,4330,35969
1449,16967,35971
1450,2948,35973
1451,7775,35976
1452,1870,35978
1453,3759,35979
1454,16976,35980
1455,7776,35984
1456,1688,35986
1457,7777,35987
1458,7778,35988
1459,7779,35990
1460,7780,35991
1461,12953,35992
1462,4303,35994
1463,16982,35999
1464,3018,36000
1465,16981,36001
1466,4329,36003
1467,16973,36004
1468,12964,36005
1469,7781,36007
1470,11257,36011
1471,11259,36013
1472,12261,46073
1473,12262,46075
1474,9244,46080
1475,12263,46083
1476,9243,46084
1477,9247,46090
1478,9248,46092
1479,2606,46098
1480,9250,46102
1481,1704,46105
1482,12264,46106
1483,3632,46107
1484,3006,46108
1485,9242,46110
1486,12265,46111
1487,9253,46118
1488,9255,46122
1489,12266,46123
1490,12267,46129
1491,1701,46134
1492,12268,46137
1493,2835,46140
1494,12269,46144
1495,3672,46145
1496,9260,46146
1497,12270,46147
1498,12271,46148
1499,280,46149
1500,2833,46154
1501,9257,46155
1502,1503,46156
1503,12272,46163
1504,14510,30581
1505,2597,30588
1506,10688,30590
1507,6997,30594
1508,6998,30596
1509,6999,30599
1510,7000,30601
1511,14513,30603
1512,7001,30609
1513,14792,30612
1514,7002,30613
1515,2662,30616
1516,7003,30619
1517,7004,30621
1518,14810,30623
1519,7005,30626
1520,7006,30628
1521,14807,30629
1522,2664,30630
1523,7007,30631
1524,2669,30632
1525,14806,30634
1526,14802,30637
1527,408,30638
1528,14803,30639
1529,14809,30643
1530,2573,30644
1531,10695,30646
1532,10694,30647
1533,7008,30649
1534,7009,30653
1535,14793,30654
1536,3266,15865
1537,6474,15867
1538,6075,15869
1539,8104,15874
1540,5489,15875
1541,5997,15879
1542,8105,15890
1543,5959,15893
1544,7314,15896
1545,8192,15899
1546,3267,15900
1547,3268,15905
1548,9455,15906
1549,6521,15907
1550,5936,15908
1551,3269,15911
1552,5255,15915
1553,3270,15917
1554,3271,15919
1555,3272,15920
1556,6624,15928
1557,6007,15932
1558,7550,15934
1559,6592,15938
1560,171,15941
1561,157,15954
1562,8833,15956
1563,5326,15957
1564,3273,15970
1565,287,15971
1566,3274,15973
1567,78,15975
1568,7080,10735
1569,7088,10740
1570,2282,10742
1571,2283,10743
1572,7589,10755
1573,2284,10759
1574,2285,10760
1575,7093,10769
1576,2286,10771
1577,7090,10772
1578,4810,10773
1579,2287,10777
1580,2288,10779
1581,5416,10781
1582,2289,10786
1583,2290,10793
1584,2291,10796
1585,2292,10797
1586,2293,10798
1587,5844,10799
1588,7084,10801
1589,7605,10806
1590,8220,10808
1591,7717,10809
1592,2294,10811
1593,5,10813
1594,9473,10814
1595,2295,10816
1596,2296,10817
1597,2297,10820
1598,134,10828
1599,6693,10829
1600,17000,59540
1601,17001,59541
1602,17002,59543
1603,17003,59544
1604,3118,59546
1605,6798,59547
1606,17004,59549
1607,17005,59550
1608,17006,59551
1609,7755,59552
1610,17007,59554
1611,17008,59555
1612,17009,59557
1613,17010,59560
1614,17011,59561
1615,703,59563
1616,17012,59564
1617,17013,59565
1618,7113,59566
1619,7141,59570
1620,17014,59572
1621,7144,59574
1622,17015,59576
1623,17016,59577
1624,17017,59578
1625,17018,59580
1626,7,59582
1627,949,59583
1628,17019,59588
1629,17020,59590
1630,17021,59591
1631,17022,59592
1632,10311,26889
1633,10312,26891
1634,10313,26893
1635,3377,26894
1636,10314,26898
1637,6449,26899
1638,10315,26903
1639,3564,26905
1640,10316,26909
1641,3571,26910
1642,1023,26912
1643,6456,26914
1644,6350,26915
1645,6457,26918
1646,3662,26919
1647,10317,26921
1648,6455,26923
1649,10318,26930
1650,10319,26935
1651,1109,26939
1652,3995,26941
1653,5161,26942
1654,6176,26948
1655,10320,26953
1656,10321,26955
1657,10322,26958
1658,3991,26964
1659,6463,26967
1660,6464,26972
1661,3196,26975
1662,6465,26976
1663,6466,26978
1664,11846,41888
1665,3494,41891
1666,8628,41892
1667,2578,41893
1668,8639,41894
1669,11847,41895
1670,8642,41897
1671,8644,41899
1672,11848,41900
1673,460,41902
1674,11849,41907
1675,8646,41914
1676,11850,41923
1677,3495,41924
1678,11851,41925
1679,388,41935
1680,1780,41936
1681,11852,41939
1682,8648,41940
1683,8649,41942
1684,3027,41946
1685,1779,41949
1686,8647,41954
1687,8651,41961
1688,8652,41962
1689,8653,41965
1690,11853,41970
1691,8654,41974
1692,1777,41975
1693,8655,41977
1694,8636,41978
1695,8627,41982
1696,15978,56784
1697,15979,56786
1698,15980,56787
1699,15981,56792
1700,15982,56793
1701,15983,56794
1702,15984,56798
1703,8260,56799
1704,15985,56800
1705,5457,56804
1706,15986,56809
1707,2327,56812
1708,6267,56813
1709,15987,56815
1710,15988,56816
1711,8254,56817
1712,5436,56819
1713,4387,56821
1714,6263,56822
1715,15989,56823
1716,15990,56824
1717,6264,56825
1718,15991,56826
1719,646,56827
1720,9472,56828
1721,15992,56829
1722,6386,56832
1723,15993,56833
1724,15994,56837
1725,15995,56839
1726,6276,56840
1727,808,56844
1728,6697,28588
1729,6698,28590
1730,12429,28591
1731,12394,28592
1732,13867,28595
1733,6699,28598
1734,13869,28599
1735,13870,28602
1736,12513,28604
1737,1944,28611
1738,6700,28612
1739,1943,28614
1740,6701,28615
1741,6702,28617
1742,6703,28620
1743,6704,28626
1744,6705,28629
1745,6706,28631
1746,6707,28633
1747,3095,28634
1748,10515,28637
1749,6708,28640
1750,1940,28641
1751,3050,28642
1752,3036,28644
1753,3037,28648
1754,10508,28649
1755,3099,28651
1756,10509,28659
1757,3042,28661
1758,12899,28663
1759,12908,28668
1760,13461,23135
1761,12406,23138
1762,5927,23139
1763,5928,23140
1764,13460,23145
1765,236,23150
1766,5929,23152
1767,5930,23153
1768,4117,23158
1769,237,23159
1770,5931,23165
1771,3262,23169
1772,10002,23170
1773,5932,23171
1774,2823,23172
1775,5933,23173
1776,14430,23178
1777,320,23181
1778,3643,23182
1779,9939,23183
1780,5934,23184
1781,3041,23185
1782,14949,23186
1783,5935,23189
1784,9938,23190
1785,14443,23197
1786,4119,23202
1787,5936,23204
1788,14957,23209
1789,176,23210
1790,14935,23211
1791,9944,23213
1792,9779,21651
1793,4090,21654
1794,5707,21655
1795,9780,21663
1796,9781,21665
1797,3629,21671
1798,3620,21672
1799,2832,21673
1800,4010,21674
1801,3138,21681
1802,9782,21682
1803,5484,21692
1804,2133,21697
1805,5486,21699
1806,5726,21701
1807,5727,21706
1808,9783,21712
1809,169,21720
1810,1340,21721
1811,2169,21725
1812,9784,21728
1813,5494,21730
1814,4097,21736
1815,5732,21738
1816,4749,21739
1817,9785,21740
1818,1958,21741
1819,9786,21744
1820,9787,21746
1821,5730,21747
1822,9788,21750
1823,9789,21752
1824,13872,51220
1825,13873,51221
1826,13874,51222
1827,13875,51225
1828,13876,51226
1829,8570,51228
1830,8310,51229
1831,13877,51230
1832,13878,51232
1833,13879,51233
1834,13880,51236
1835,13881,51239
1836,294,51241
1837,13882,51242
1838,13883,51243
1839,13884,51246
1840,13885,51247
1841,13886,51253
1842,13887,51257
1843,13888,51258
1844,8312,51259
1845,3811,51260
1846,13889,51264
1847,5596,51265
1848,13890,51266
1849,2057,51267
1850,13891,51270
1851,13892,51274
1852,13893,51276
1853,13894,51278
1854,13895,51281
1855,13896,51282
1856,11221,35647
1857,7612,35648
1858,11222,35650
1859,11223,35652
1860,11224,35653
1861,2618,35659
1862,2572,35662
1863,1570,35663
1864,7717,35672
1865,2630,35675
1866,11225,35677
1867,7721,35678
1868,2631,35681
1869,7722,35683
1870,2628,35685
1871,7720,35686
1872,397,35694
1873,4877,35697
1874,7725,35700
1875,1559,35707
1876,4888,35708
1877,7727,35713
1878,7729,35717
1879,4833,35718
1880,11226,35719
1881,7724,35721
1882,2557,35723
1883,11227,35726
1884,11228,35727
1885,11229,35729
1886,4326,35733
1887,7731,35735
1888,9114,45211
1889,9115,45215
1890,9116,45216
1891,12178,45225
1892,9117,45227
1893,13301,45230
1894,2802,45233
1895,14851,45235
1896,9118,45236
1897,312,45238
1898,9119,45239
1899,9120,45243
1900,9121,45247
1901,14852,45250
1902,9122,45254
1903,2551,45256
1904,9123,45259
1905,1810,45262
1906,4317,45263
1907,2546,45267
1908,2805,45268
1909,9124,45274
1910,12213,45275
1911,12177,45278
1912,13235,45281
1913,9125,45282
1914,9126,45287
1915,2545,45290
1916,9127,45292
1917,150,45293
1918,9128,45294
1919,12182,45295
1920,634,56702
1921,15955,56709
1922,15957,56714
1923,16093,56725
1924,15970,56730
1925,15960,56731
1926,15962,56738
1927,746,56739
1928,15964,56741
1929,15965,56744
1930,15969,56749
1931,15978,56761
1932,15972,56765
1933,15974,56771
1934,15982,56779
1935,361,56783
1936,15983,56785
1937,9472,56802
1938,646,56806
1939,15992,56820
1940,16000,56830
1941,808,56834
1942,15994,56835
1943,15996,56841
1944,15998,56842
1945,15997,56843
1946,16002,56853
1947,16005,56861
1948,16130,56866
1949,16009,56880
1950,9473,56885
1951,16046,56886
1952,2333,11112
1953,2334,11114
1954,2335,11116
1955,2336,11117
1956,4802,11119
1957,2337,11120
1958,7646,11122
1959,2338,11123
1960,5872,11130
1961,5869,11133
1962,6409,11135
1963,2339,11136
1964,6400,11138
1965,9468,11141
1966,2340,11142
1967,2341,11143
1968,8982,11146
1969,2342,11147
1970,2343,11148
1971,4746,11151
1972,2344,11154
1973,289,11156
1974,2345,11159
1975,2346,11161
1976,2347,11167
1977,8924,11169
1978,2348,11170
1979,5403,11172
1980,5833,11173
1981,2349,11174
1982,2350,11175
1983,2351,11178
1984,4449,48234
1985,12753,48237
1986,1020,48238
1987,12754,48243
1988,12755,48245
1989,79,48246
1990,12756,48247
1991,12757,48249
1992,3471,48250
1993,12758,48251
1994,12759,48253
1995,9385,48255
1996,543,48256
1997,12760,48257
1998,4396,48258
1999,12761,48260
2000,609,48261
2001,12762,48262
2002,8769,48264
2003,12763,48265
2004,12764,48266
2005,66,48267
2006,12765,48268
2007,12766,48269
2008,12767,48270
2009,12768,48273
2010,12769,48275
2011,12770,48276
2012,12771,48277
2013,12772,48278
2014,3282,48280
2015,12773,48282
2016,9271,46262
2017,1888,46263
2018,12690,46264
2019,3534,46266
2020,14043,46270
2021,4497,46271
2022,12284,46272
2023,3116,46275
2024,9272,46276
2025,14042,46277
2026,4498,46278
2027,14037,46279
2028,2869,46280
2029,14036,46281
2030,12285,46283
2031,2868,46287
2032,2867,46291
2033,1734,46293
2034,9273,46294
2035,9274,46298
2036,14035,46301
2037,9275,46303
2038,2543,46304
2039,9276,46305
2040,12891,46306
2041,12286,46307
2042,1914,46309
2043,12287,46310
2044,9277,46312
2045,12892,46320
2046,12347,46321
2047,12668,46323
2048,13841,42594
2049,3021,42595
2050,8746,42596
2051,3397,42597
2052,8747,42598
2053,1772,42599
2054,2796,42600
2055,1771,42602
2056,8748,42603
2057,14258,42606
2058,1770,42608
2059,8749,42612
2060,8750,42615
2061,4433,42618
2062,14247,42620
2063,14257,42622
2064,14260,42623
2065,14936,42627
2066,8751,42631
2067,2196,42632
2068,11921,42634
2069,8752,42635
2070,14253,42640
2071,8753,42641
2072,14262,42647
2073,14434,42648
2074,8754,42649
2075,13936,42650
2076,15317,42651
2077,8755,42652
2078,2291,42653
2079,11926,42656
2080,1459,5362
2081,5522,5366
2082,1460,5367
2083,5815,5368
2084,5820,5369
2085,5819,5370
2086,5807,5372
2087,5510,5374
2088,1461,5375
2089,5813,5379
2090,1462,5381
2091,5282,5383
2092,169,5390
2093,164,5399
2094,8514,5402
2095,166,5405
2096,1463,5412
2097,1464,5415
2098,5981,5417
2099,5975,5418
2100,5490,5419
2101,8788,5420
2102,1465,5421
2103,8762,5422
2104,8757,5423
2105,5168,5424
2106,1466,5425
2107,1467,5427
2108,1468,5428
2109,5972,5429
2110,9460,5430
2111,5251,5431
2112,4777,34239
2113,7485,34242
2114,11067,34245
2115,11068,34246
2116,2405,34251
2117,11069,34255
2118,7505,34257
2119,11070,34258
2120,11071,34262
2121,2276,34263
2122,4298,34265
2123,4290,34268
2124,4288,34270
2125,2404,34273
2126,4707,34274
2127,7504,34275
2128,11072,34277
2129,11073,34278
2130,11074,34282
2131,7507,34286
2132,7508,34291
2133,11075,34297
2134,990,34298
2135,11076,34301
2136,7510,34303
2137,11077,34307
2138,7512,34311
2139,2139,34312
2140,4654,34313
2141,7514,34318
2142,7515,34322
2143,11078,34324
2144,5242,5432
2145,8824,5434
2146,1469,5436
2147,1470,5440
2148,8796,5441
2149,5979,5442
2150,1471,5444
2151,1472,5445
2152,1473,5446
2153,8835,5447
2154,8847,5450
2155,6006,5451
2156,8841,5452
2157,1474,5455
2158,8881,5456
2159,5504,5459
2160,8887,5462
2161,6020,5464
2162,161,5465
2163,8837,5466
2164,6022,5467
2165,1475,5469
2166,1476,5470
2167,1477,5471
2168,5500,5472
2169,1478,5473
2170,1479,5474
2171,8889,5475
2172,5693,5478
2173,1480,5479
2174,1481,5480
2175,8915,5481
2176,13695,50751
2177,13696,50752
2178,13697,50754
2179,5804,50755
2180,8761,50756
2181,13698,50759
2182,13699,50760
2183,8781,50761
2184,4099,50762
2185,13700,50763
2186,13701,50764
2187,13702,50765
2188,13703,50767
2189,4394,50769
2190,13704,50770
2191,13705,50771
2192,13706,50772
2193,6520,50774
2194,5770,50776
2195,585,50777
2196,13707,50780
2197,13708,50782
2198,13709,50786
2199,13710,50789
2200,13711,50791
2201,661,50792
2202,13712,50793
2203,13713,50795
2204,13714,50796
2205,13715,50800
2206,13716,50802
2207,13717,50804
2208,11367,37188
2209,7970,37190
2210,3223,37193
2211,7971,37195
2212,4346,37197
2213,101,37198
2214,1050,37199
2215,1255,37205
2216,3582,37207
2217,7972,37211
2218,16500,37214
2219,12486,37215
2220,3476,37216
2221,16495,37223
2222,7973,37226
2223,11379,37227
2224,1266,37228
2225,7974,37229
2226,3491,37234
2227,3381,37236
2228,7975,37237
2229,11370,37238
2230,16588,37242
2231,11373,37243
2232,11371,37244
2233,7976,37248
2234,3380,37249
2235,7977,37252
2236,3378,37255
2237,11380,37257
2238,7978,37259
2239,4341,37263
2240,10869,10198
2241,9509,10205
2242,17277,10207
2243,4636,10209
2244,4637,10216
2245,9826,10217
2246,1377,10220
2247,10874,10230
2248,16743,10231
2249,15434,10234
2250,12120,10236
2251,10950,10247
2252,10953,10250
2253,4638,10251
2254,13715,10252
2255,15446,10253
2256,13713,10257
2257,12225,10260
2258,11887,10265
2259,4639,10267
2260,4640,10270
2261,17301,10272
2262,4641,10277
2263,1008,10288
2264,10949,10293
2265,16732,10294
2266,17380,10295
2267,4642,10297
2268,10944,10304
2269,17236,10305
2270,1720,10307
2271,11121,10311
2272,9644,3291
2273,9611,3300
2274,10440,3302
2275,10442,3308
2276,10434,3314
2277,10435,3321
2278,10396,3347
2279,10421,3373
2280,4555,3380
2281,10444,3384
2282,10437,3389
2283,9616,3417
2284,10411,3431
2285,4556,3518
2286,9610,3532
2287,16491,3537
2288,9588,3540
2289,10137,3550
2290,9586,3564
2291,9583,3565
2292,10135,3568
2293,10136,3582
2294,16379,3585
2295,9594,3593
2296,11382,3599
2297,4557,3602
2298,9584,3625
2299,10186,3636
2300,16195,3666
2301,10417,3684
2302,10430,3687
2303,16241,3713
2304,7536,51167
2305,13854,51168
2306,13855,51170
2307,8743,51171
2308,13856,51173
2309,2766,51174
2310,13857,51175
2311,13858,51176
2312,13859,51182
2313,13860,51183
2314,6599,51184
2315,13861,51187
2316,7341,51188
2317,7343,51190
2318,13862,51193
2319,527,51194
2320,8733,51195
2321,13863,51196
2322,13864,51197
2323,4929,51198
2324,8737,51199
2325,13865,51201
2326,13866,51202
2327,13867,51205
2328,13868,51206
2329,13869,51207
2330,13870,51208
2331,3452,51210
2332,2101,51213
2333,9434,51214
2334,9435,51216
2335,13871,51219
2336,10126,24937
2337,6181,24938
2338,6182,24939
2339,6183,24940
2340,6184,24941
2341,6185,24943
2342,12984,24944
2343,6186,24946
2344,15871,24947
2345,1208,24948
2346,588,24950
2347,6187,24951
2348,15879,24957
2349,6188,24958
2350,12880,24959
2351,94,24960
2352,10131,24963
2353,6189,24965
2354,10128,24966
2355,15874,24967
2356,6190,24969
2357,1205,24972
2358,12883,24979
2359,4058,24988
2360,6191,24991
2361,6192,24992
2362,16502,24994
2363,1251,24996
2364,6193,24997
2365,16493,24998
2366,1926,25002
2367,4143,25003
2368,466,14939
2369,624,14950
2370,467,15041
2371,469,15044
2372,470,15057
2373,468,15059
2374,723,15201
2375,471,15254
2376,727,15328
2377,675,15340
2378,801,15363
2379,674,15413
2380,475,15426
2381,478,15498
2382,629,15508
2383,611,15572
2384,653,15648
2385,655,15687
2386,627,15790
2387,550,15812
2388,767,15910
2389,489,15912
2390,639,15977
2391,490,15991
2392,638,16020
2393,492,16054
2394,506,16118
2395,757,16160
2396,552,16183
2397,519,16235
2398,500,16261
2399,505,16334
2400,10345,27179
2401,1094,27180
2402,2050,27184
2403,10346,27185
2404,290,27186
2405,6479,27187
2406,5427,27188
2407,6495,27190
2408,10347,27195
2409,10348,27200
2410,6497,27204
2411,6498,27209
2412,3831,27212
2413,10349,27214
2414,1122,27215
2415,10350,27216
2416,6426,27221
2417,6500,27222
2418,3886,27232
2419,3324,27236
2420,10351,27239
2421,3323,27240
2422,504,27241
2423,10352,27242
2424,5362,27243
2425,10353,27244
2426,2013,27246
2427,10354,27247
2428,6499,27249
2429,5399,27250
2430,4182,27252
2431,10355,27259
2432,4177,28307
2433,1026,28310
2434,67,28311
2435,10482,28314
2436,3475,28317
2437,292,28319
2438,3619,28325
2439,10483,28327
2440,6660,28330
2441,6661,28335
2442,1017,28339
2443,6664,28345
2444,2111,28347
2445,10484,28350
2446,6665,28353
2447,10485,28355
2448,1044,28359
2449,6667,28365
2450,5234,28367
2451,6668,28371
2452,4139,28374
2453,97,28377
2454,10486,28379
2455,5233,28382
2456,10487,28384
2457,10488,28389
2458,3641,28392
2459,3642,28398
2460,278,28404
2461,1041,28405
2462,6633,28406
2463,10489,28407
2464,7657,35271
2465,289,35272
2466,4314,35276
2467,2889,35283
2468,5052,35286
2469,11180,35289
2470,11181,35290
2471,7661,35293
2472,7663,35294
2473,11182,35301
2474,2888,35302
2475,11183,35305
2476,7664,35308
2477,7665,35314
2478,11184,35317
2479,1550,35321
2480,1549,35329
2481,7667,35330
2482,11185,35332
2483,7668,35335
2484,11186,35337
2485,4875,35339
2486,7671,35341
2487,7672,35347
2488,4803,35348
2489,1560,35350
2490,7674,35359
2491,11187,35361
2492,1551,35362
2493,2559,35365
2494,7673,35367
2495,1548,35369
2496,2227,32311
2497,13216,32312
2498,10876,32314
2499,7235,32315
2500,7236,32317
2501,2137,32319
2502,10887,32325
2503,7237,32326
2504,2206,32327
2505,17312,32329
2506,17314,32330
2507,17271,32332
2508,2207,32334
2509,10880,32335
2510,7238,32339
2511,17273,32340
2512,7239,32341
2513,326,32343
2514,2218,32345
2515,7240,32349
2516,13160,32354
2517,7241,32361
2518,2237,32364
2519,7242,32367
2520,1012,32369
2521,338,32370
2522,17225,32373
2523,1881,32375
2524,17223,32376
2525,17222,32377
2526,13272,32378
2527,2520,32381
2528,9294,46395
2529,2896,46403
2530,15294,46404
2531,394,46405
2532,9295,46406
2533,9296,46408
2534,796,46409
2535,12680,46411
2536,797,46412
2537,2898,46413
2538,9297,46415
2539,12859,46418
2540,9298,46420
2541,9299,46422
2542,14108,46424
2543,9300,46425
2544,14105,46426
2545,15293,46427
2546,9301,46428
2547,9302,46431
2548,9303,46432
2549,12297,46435
2550,2895,46436
2551,12351,46437
2552,12929,46444
2553,9304,46445
2554,12300,46449
2555,9305,46452
2556,9306,46456
2557,1762,46457
2558,9307,46458
2559,2950,46459
2560,16937,59347
2561,16938,59348
2562,16939,59352
2563,16940,59353
2564,16941,59356
2565,7829,59360
2566,16942,59362
2567,16943,59363
2568,16944,59365
2569,16945,59366
2570,9491,59370
2571,16946,59371
2572,16947,59373
2573,211,59374
2574,16948,59376
2575,16949,59379
2576,16950,59381
2577,16951,59382
2578,7183,59383
2579,16952,59384
2580,42,59386
2581,16953,59394
2582,16954,59396
2583,16955,59397
2584,4334,59398
2585,16956,59399
2586,2862,59400
2587,725,59401
2588,16957,59403
2589,16958,59408
2590,446,59409
2591,16959,59411
2592,5998,23609
2593,9981,23610
2594,9982,23611
2595,9983,23614
2596,4083,23618
2597,1761,23619
2598,9984,23620
2599,5997,23622
2600,2903,23623
2601,5999,23625
2602,9985,23626
2603,2991,23628
2604,9986,23631
2605,9987,23634
2606,6000,23636
2607,5679,23638
2608,2990,23640
2609,9988,23641
2610,1474,23643
2611,5573,23645
2612,9989,23654
2613,5718,23655
2614,2603,23659
2615,6003,23660
2616,6004,23662
2617,9990,23663
2618,6005,23668
2619,6001,23669
2620,6006,23671
2621,9991,23672
2622,9992,23675
2623,6007,23676
2624,8101,38025
2625,8102,38026
2626,16199,38030
2627,11445,38031
2628,3555,38033
2629,11447,38034
2630,4359,38036
2631,3585,38042
2632,11446,38044
2633,8103,38045
2634,1234,38047
2635,8104,38051
2636,8105,38053
2637,1229,38060
2638,11449,38062
2639,3584,38063
2640,11453,38066
2641,4363,38067
2642,12650,38070
2643,8106,38071
2644,11450,38073
2645,3413,38075
2646,3654,38076
2647,8107,38077
2648,16341,38079
2649,1037,38082
2650,12692,38083
2651,12527,38084
2652,1238,38085
2653,8108,38092
2654,12649,38093
2655,8109,38096
2656,2826,13831
2657,7197,13833
2658,2827,13834
2659,2828,13836
2660,7845,13845
2661,7194,13847
2662,2829,13851
2663,2830,13852
2664,2831,13856
2665,5100,13863
2666,8962,13865
2667,2832,13866
2668,2833,13869
2669,4989,13870
2670,2834,13871
2671,2835,13874
2672,2836,13875
2673,2837,13877
2674,2838,13878
2675,2839,13884
2676,2840,13886
2677,2841,13887
2678,2842,13889
2679,4968,13890
2680,6777,13891
2681,2843,13898
2682,2844,13899
2683,2845,13902
2684,9363,13903
2685,2846,13904
2686,2847,13906
2687,2848,13907
2688,972,32896
2689,10938,32897
2690,10939,32899
2691,2241,32900
2692,5132,32908
2693,974,32911
2694,7316,32914
2695,973,32927
2696,7304,32929
2697,10940,32933
2698,3283,32934
2699,2173,32936
2700,7320,32941
2701,1882,32942
2702,7321,32946
2703,2186,32954
2704,10941,32956
2705,2165,32959
2706,7325,32964
2707,4656,32967
2708,7323,32969
2709,7326,32972
2710,4646,32975
2711,4644,32976
2712,7327,32978
2713,7322,32979
2714,2198,32982
2715,60,32987
2716,10942,32988
2717,7328,32993
2718,7331,32996
2719,2170,32998
2720,7303,60319
2721,17280,60320
2722,7282,60322
2723,17281,60324
2724,2245,60325
2725,17282,60326
2726,17283,60328
2727,17284,60329
2728,9498,60332
2729,7236,60333
2730,17285,60334
2731,17286,60337
2732,17287,60338
2733,17288,60339
2734,7281,60340
2735,17289,60341
2736,17290,60342
2737,17291,60343
2738,17292,60346
2739,2213,60349
2740,17293,60352
2741,17294,60356
2742,17295,60358
2743,17296,60359
2744,17297,60361
2745,17298,60362
2746,7345,60363
2747,17299,60365
2748,7344,60366
2749,17300,60367
2750,17301,60368
2751,17302,60369
2752,5395,43626
2753,1291,43627
2754,4461,43643
2755,8906,43645
2756,5468,43648
2757,130,43649
2758,8907,43652
2759,4728,43655
2760,8908,43659
2761,783,43661
2762,8909,43665
2763,8910,43672
2764,8911,43677
2765,12018,43678
2766,4750,43683
2767,2491,43685
2768,4460,43688
2769,2981,43689
2770,4748,43690
2771,4562,43691
2772,12019,43694
2773,1480,43695
2774,8913,43699
2775,4462,43700
2776,12020,43701
2777,2977,43702
2778,2980,43704
2779,784,43705
2780,12021,43711
2781,8914,43713
2782,2495,43714
2783,8912,43716
2784,11424,37893
2785,11425,37896
2786,11426,37897
2787,8080,37898
2788,11427,37901
2789,8086,37903
2790,7922,37909
2791,11428,37914
2792,1038,37915
2793,1033,37917
2794,3658,37918
2795,5328,37919
2796,11429,37920
2797,3666,37923
2798,11430,37925
2799,5334,37927
2800,11431,37929
2801,8089,37936
2802,4347,37943
2803,1221,37945
2804,5237,37955
2805,11432,37957
2806,1029,37958
2807,8085,37964
2808,5333,37965
2809,3646,37968
2810,11433,37969
2811,11434,37971
2812,1027,37972
2813,11435,37973
2814,8094,37975
2815,3667,37978
2816,15595,55777
2817,15601,55787
2818,15604,55789
2819,15605,55799
2820,15610,55805
2821,614,55823
2822,15622,55829
2823,15631,55840
2824,15628,55844
2825,15627,55850
2826,15633,55857
2827,15629,55861
2828,15637,55879
2829,4513,55897
2830,1317,55898
2831,15651,55899
2832,15646,55901
2833,15644,55903
2834,619,55911
2835,15648,55912
2836,15647,55916
2837,15650,55917
2838,15717,55922
2839,15653,55929
2840,15679,55946
2841,367,55947
2842,15660,55951
2843,15661,55953
2844,15669,55963
2845,15665,55966
2846,15678,55993
2847,15682,56000
2848,1096,2668
2849,1097,2670
2850,1098,2673
2851,1099,2674
2852,8436,2680
2853,1100,2681
2854,1101,2682
2855,8439,2683
2856,5520,2685
2857,1102,2687
2858,8427,2688
2859,1103,2690
2860,4551,2692
2861,8406,2693
2862,8399,2694
2863,8400,2697
2864,8402,2698
2865,1104,2700
2866,5505,2707
2867,5114,2712
2868,5120,2713
2869,5109,2715
2870,6464,2716
2871,6465,2717
2872,1105,2720
2873,1106,2721
2874,5161,2722
2875,6459,2723
2876,1107,2724
2877,1108,2725
2878,1109,2726
2879,6461,2728
2880,12184,45357
2881,2132,45361
2882,2787,45369
2883,9137,45370
2884,9138,45371
2885,9139,45372
2886,194,45373
2887,9140,45374
2888,15149,45376
2889,2781,45377
2890,9141,45378
2891,14855,45380
2892,15148,45381
2893,9142,45386
2894,2587,45389
2895,14854,45390
2896,3841,45393
2897,14850,45397
2898,14846,45398
2899,13270,45399
2900,12188,45402
2901,9143,45408
2902,12190,45409
2903,793,45414
2904,14848,45418
2905,1799,45423
2906,12208,45424
2907,9144,45425
2908,12195,45426
2909,403,45428
2910,2746,45429
2911,1801,45430
2912,7398,6317
2913,1624,6321
2914,1625,6322
2915,41,6324
2916,5021,6325
2917,1626,6326
2918,1627,6327
2919,1628,6328
2920,1629,6329
2921,7380,6330
2922,7377,6332
2923,1630,6333
2924,1631,6334
2925,4959,6335
2926,1632,6336
2927,1633,6339
2928,7381,6341
2929,1634,6342
2930,7383,6343
2931,5026,6344
2932,1635,6345
2933,7367,6348
2934,1636,6349
2935,7365,6350
2936,1637,6352
2937,1638,6353
2938,1639,6354
2939,1640,6356
2940,7768,6357
2941,6817,6358
2942,1641,6359
2943,7839,6366
2944,12911,48626
2945,6227,48628
2946,12912,48629
2947,9251,48630
2948,12913,48631
2949,12914,48633
2950,12915,48635
2951,12916,48638
2952,1928,48640
2953,6145,48643
2954,12917,48645
2955,7394,48646
2956,12918,48647
2957,12919,48648
2958,12920,48651
2959,9419,48652
2960,12921,48654
2961,7804,48656
2962,12922,48659
2963,12923,48661
2964,12924,48665
2965,12925,48666
2966,12926,48667
2967,9256,48669
2968,464,48671
2969,12927,48674
2970,3022,48675
2971,12928,48677
2972,12929,48678
2973,6142,48679
2974,12930,48680
2975,12931,48682
2976,5202,16668
2977,11654,16672
2978,12472,16678
2979,15616,16682
2980,5203,16684
2981,5204,16687
2982,5205,16689
2983,1142,16692
2984,5206,16694
2985,12100,16697
2986,1104,16700
2987,15081,16701
2988,9744,16706
2989,5207,16708
2990,13067,16710
2991,11030,16711
2992,12488,16715
2993,1264,16718
2994,11028,16720
2995,5208,16721
2996,5209,16722
2997,11663,16724
2998,12101,16725
2999,15061,16728
3000,1256,16731
3001,10029,16732
3002,11026,16734
3003,3200,16735
3004,16468,16740
3005,1887,16741
3006,10283,16742
3007,5210,16745
3008,1744,41790
3009,8626,41791
3010,4879,41794
3011,3485,41805
3012,4564,41807
3013,8631,41815
3014,11838,41819
3015,8630,41820
3016,3010,41821
3017,8634,41825
3018,11839,41826
3019,8635,41831
3020,4871,41833
3021,11840,41834
3022,11841,41835
3023,3008,41841
3024,8637,41842
3025,11842,41845
3026,8633,41846
3027,216,41854
3028,4853,41861
3029,11843,41864
3030,1775,41866
3031,8640,41869
3032,3032,41870
3033,11844,41871
3034,8643,41875
3035,4432,41876
3036,11845,41877
3037,8632,41879
3038,2590,41884
3039,8645,41886
3040,16978,59473
3041,16979,59475
3042,16980,59477
3043,16981,59478
3044,4989,59479
3045,16982,59481
3046,1688,59482
3047,16983,59485
3048,16984,59487
3049,16985,59488
3050,16986,59492
3051,2964,59493
3052,16987,59502
3053,16988,59505
3054,16989,59506
3055,16990,59507
3056,16991,59511
3057,16992,59513
3058,16993,59514
3059,2966,59517
3060,16994,59518
3061,16995,59520
3062,6806,59521
3063,448,59525
3064,16996,59527
3065,4518,59528
3066,673,59529
3067,16997,59531
3068,3105,59534
3069,5100,59537
3070,16998,59538
3071,16999,59539
3072,14853,53844
3073,14854,53845
3074,14855,53846
3075,14856,53847
3076,194,53848
3077,14857,53849
3078,1806,53850
3079,4235,53852
3080,6878,53853
3081,2589,53857
3082,14858,53859
3083,14859,53863
3084,14860,53865
3085,14861,53866
3086,14862,53867
3087,14863,53868
3088,14864,53869
3089,793,53871
3090,14865,53873
3091,14866,53875
3092,444,53878
3093,14867,53879
3094,14868,53881
3095,14869,53882
3096,14870,53883
3097,14871,53885
3098,14872,53887
3099,14873,53891
3100,6095,53893
3101,14874,53894
3102,8602,53895
3103,14875,53897
3104,1695,21029
3105,14113,21030
3106,14112,21034
3107,5633,21035
3108,9715,21037
3109,5634,21038
3110,15125,21039
3111,600,21040
3112,9740,21043
3113,9739,21044
3114,5635,21045
3115,5636,21046
3116,3983,21047
3117,330,21048
3118,2576,21049
3119,299,21050
3120,5637,21051
3121,14011,21053
3122,9932,21054
3123,2719,21055
3124,9980,21056
3125,5638,21057
3126,5639,21059
3127,5640,21061
3128,5641,21064
3129,5642,21066
3130,2713,21068
3131,5643,21070
3132,5644,21079
3133,5645,21081
3134,1389,21083
3135,12703,21084
3136,375,21811
3137,5746,21815
3138,4099,21834
3139,5754,21839
3140,4100,21877
3141,4101,21922
3142,4102,21925
3143,5764,21977
3144,4103,22018
3145,560,22023
3146,4104,22024
3147,615,22083
3148,4105,22114
3149,5918,22134
3150,493,22153
3151,4106,22165
3152,4107,22193
3153,4108,22199
3154,5811,22260
3155,4109,22276
3156,318,22329
3157,4110,22423
3158,5830,22430
3159,617,22432
3160,618,22499
3161,5838,22505
3162,5840,22510
3163,5845,22567
3164,4111,22580
3165,619,22599
3166,360,22604
3167,4112,22610
3168,7603,12738
3169,9335,12740
3170,2618,12742
3171,2619,12746
3172,247,12747
3173,2620,12748
3174,2621,12751
3175,2622,12753
3176,307,12754
3177,2623,12757
3178,285,12758
3179,334,12762
3180,412,12763
3181,4908,12764
3182,2624,12767
3183,400,12774
3184,2625,12775
3185,190,12782
3186,383,12783
3187,197,12785
3188,5604,12786
3189,390,12790
3190,410,12793
3191,4949,12797
3192,2626,12800
3193,9322,12802
3194,2627,12804
3195,2628,12805
3196,2629,12806
3197,5721,12808
3198,2630,12811
3199,5708,12814
3200,4500,46504
3201,4501,46506
3202,798,46568
3203,541,46686
3204,9440,46872
3205,4502,46883
3206,4503,46891
3207,4504,46944
3208,401,46972
3209,801,46980
3210,800,47021
3211,656,47204
3212,654,47279
3213,543,47297
3214,9410,47360
3215,535,47391
3216,803,47602
3217,4505,47897
3218,4506,47934
3219,802,48691
3220,635,48835
3221,4507,49443
3222,4508,49481
3223,787,50195
3224,604,50299
3225,9431,50494
3226,757,50558
3227,9432,50703
3228,4509,51428
3229,658,51474
3230,612,51721
3231,610,51839
3232,10508,28654
3233,6708,28655
3234,1684,28657
3235,3099,28658
3236,1940,28660
3237,10509,28662
3238,10510,28665
3239,3042,28666
3240,10511,28667
3241,5044,28671
3242,6709,28673
3243,6710,28679
3244,10512,28680
3245,5051,28683
3246,1654,28684
3247,2649,28688
3248,10513,28689
3249,4863,28695
3250,5055,28697
3251,6713,28701
3252,10514,28703
3253,6712,28704
3254,10515,28706
3255,3095,28710
3256,6717,28716
3257,6718,28719
3258,5057,28721
3259,10516,28722
3260,10517,28724
3261,3059,28725
3262,2647,28727
3263,6719,28729
3264,7345,10308
3265,9037,10309
3266,2226,10310
3267,8814,10312
3268,7580,10314
3269,2227,10316
3270,7358,10317
3271,9176,10320
3272,7574,10326
3273,8790,10327
3274,7252,10335
3275,7302,10338
3276,2228,10341
3277,328,10347
3278,2229,10349
3279,7523,10350
3280,8715,10351
3281,7309,10355
3282,2230,10357
3283,7283,10359
3284,8516,10361
3285,2231,10363
3286,2232,10366
3287,7250,10376
3288,2233,10377
3289,7220,10380
3290,8991,10382
3291,2234,10387
3292,7272,10390
3293,2235,10395
3294,7162,10398
3295,58,10400
3296,8582,53956
3297,14899,53957
3298,14900,53959
3299,14901,53961
3300,14902,53963
3301,14903,53964
3302,8930,53966
3303,14904,53967
3304,14905,53968
3305,14906,53972
3306,14907,53974
3307,14908,53975
3308,14909,53977
3309,14910,53978
3310,8942,53979
3311,14911,53981
3312,4451,53982
3313,14912,53984
3314,14913,53986
3315,1485,53987
3316,14914,53988
3317,14915,53989
3318,6036,53990
3319,3206,53992
3320,4566,53994
3321,629,53997
3322,14916,53999
3323,14917,54002
3324,14918,54003
3325,14919,54005
3326,14920,54006
3327,767,54007
3328,2657,28906
3329,10534,28909
3330,13138,28910
3331,13149,28913
3332,186,28917
3333,4212,28920
3334,13136,28922
3335,2653,28924
3336,14618,28927
3337,4213,28928
3338,1983,28931
3339,2007,28934
3340,291,28936
3341,10536,28937
3342,4214,28938
3343,6743,28939
3344,2547,28944
3345,14481,28945
3346,6744,28947
3347,6745,28952
3348,415,28956
3349,2624,28959
3350,6746,28962
3351,2601,28968
3352,6747,28970
3353,13134,28971
3354,14625,28974
3355,10538,28977
3356,13077,28980
3357,1541,28983
3358,6748,28985
3359,6749,28987
3360,6940,30217
3361,10654,30218
3362,1965,30219
3363,6942,30221
3364,10655,30222
3365,1567,30223
3366,10656,30227
3367,6943,30230
3368,10657,30231
3369,10658,30235
3370,4852,30237
3371,6946,30242
3372,10659,30243
3373,6945,30245
3374,6947,30246
3375,1573,30255
3376,4234,30256
3377,2584,30257
3378,6950,30265
3379,4229,30266
3380,6951,30270
3381,10660,30273
3382,10661,30275
3383,2592,30279
3384,6953,30280
3385,2581,30286
3386,10662,30287
3387,387,30288
3388,6955,30293
3389,1544,30295
3390,2611,30297
3391,6956,30300
3392,3505,5294
3393,1515,5297
3394,168,5299
3395,169,5304
3396,3875,5310
3397,3874,5312
3398,4109,5314
3399,3784,5324
3400,2363,5329
3401,2319,5334
3402,3807,5343
3403,3817,5344
3404,170,5347
3405,3780,5350
3406,3521,5363
3407,1524,5364
3408,1514,5365
3409,1523,5371
3410,3525,5373
3411,1525,5376
3412,1462,5377
3413,1529,5378
3414,1526,5380
3415,3281,5382
3416,171,5389
3417,2287,5391
3418,172,5395
3419,173,5403
3420,174,5404
3421,3239,5407
3422,1501,5410
3423,1502,5411
3424,14515,52938
3425,14516,52939
3426,6989,52941
3427,14517,52942
3428,6998,52947
3429,14518,52949
3430,14519,52951
3431,404,52952
3432,14520,52954
3433,14521,52956
3434,7708,52958
3435,7707,52959
3436,14522,52960
3437,14523,52961
3438,14524,52962
3439,14525,52964
3440,14526,52967
3441,14527,52970
3442,2558,52972
3443,7689,52974
3444,14528,52978
3445,679,52979
3446,14529,52980
3447,14530,52981
3448,2756,52982
3449,14531,52983
3450,14532,52987
3451,14533,52988
3452,14534,52989
3453,2562,52991
3454,14535,52993
3455,681,52995
3456,6714,28734
3457,10518,28751
3458,3144,28752
3459,10519,28753
3460,1674,28754
3461,10520,28755
3462,10521,28759
3463,3083,28763
3464,3081,28765
3465,1673,28769
3466,6705,28770
3467,4203,28772
3468,1670,28776
3469,10522,28779
3470,10523,28781
3471,1671,28782
3472,1672,28785
3473,6722,28788
3474,3076,28794
3475,6724,28796
3476,6721,28797
3477,3141,28798
3478,6725,28801
3479,5031,28802
3480,6727,28813
3481,10524,28816
3482,6729,28817
3483,10525,28819
3484,213,28821
3485,10526,28825
3486,5060,28826
3487,3098,28828
3488,7768,35930
3489,1640,35932
3490,4047,35935
3491,7769,35936
3492,11250,35939
3493,1959,35940
3494,4053,35941
3495,11251,35942
3496,1682,35945
3497,7771,35950
3498,7773,35955
3499,11252,35957
3500,11253,35963
3501,11254,35965
3502,7772,35968
3503,2861,35970
3504,2948,35974
3505,5084,35975
3506,11255,35981
3507,1689,35982
3508,3759,35983
3509,7776,35985
3510,7777,35989
3511,7780,35993
3512,7779,35995
3513,5074,35997
3514,3018,36002
3515,11256,36008
3516,7775,36009
3517,11257,36012
3518,5080,36020
3519,11258,36022
3520,1316,43989
3521,121,43991
3522,15086,43992
3523,3825,43994
3524,15677,43995
3525,13447,43996
3526,13448,43998
3527,12068,44000
3528,3122,44001
3529,13464,44003
3530,131,44007
3531,1492,44009
3532,12053,44011
3533,8957,44012
3534,12046,44013
3535,2179,44017
3536,3119,44020
3537,15642,44021
3538,1490,44022
3539,8958,44024
3540,12617,44029
3541,8959,44030
3542,12059,44038
3543,15071,44039
3544,8960,44040
3545,12049,44041
3546,8961,44042
3547,3881,44047
3548,3880,44051
3549,8962,44052
3550,8963,44055
3551,3331,44058
3552,1120,27176
3553,13904,27177
3554,10370,27178
3555,562,27181
3556,6494,27183
3557,6495,27189
3558,6496,27193
3559,10350,27194
3560,3349,27196
3561,10361,27197
3562,6497,27198
3563,13560,27203
3564,13938,27205
3565,6498,27208
3566,6499,27210
3567,3831,27211
3568,1122,27213
3569,13533,27217
3570,504,27218
3571,13919,27219
3572,6500,27220
3573,10850,27223
3574,6501,27224
3575,13947,27225
3576,6502,27226
3577,3886,27227
3578,572,27228
3579,4185,27229
3580,10352,27230
3581,2031,27233
3582,3324,27235
3583,3323,27237
3584,2767,35737
3585,7733,35742
3586,4829,35746
3587,11230,35747
3588,4318,35749
3589,2563,35750
3590,7723,35752
3591,11231,35760
3592,11232,35762
3593,191,35764
3594,11233,35774
3595,7740,35776
3596,400,35783
3597,7736,35784
3598,7728,35787
3599,2577,35792
3600,7743,35795
3601,7711,35796
3602,11234,35797
3603,4328,35799
3604,7737,35800
3605,11235,35801
3606,1556,35805
3607,11236,35806
3608,7745,35809
3609,7746,35811
3610,11237,35812
3611,11238,35814
3612,7744,35815
3613,4312,35818
3614,11239,35820
3615,11240,35823
3616,7656,8879
3617,6274,8881
3618,6915,8882
3619,1969,8884
3620,9026,8885
3621,9015,8886
3622,4831,8887
3623,4724,8889
3624,7653,8890
3625,5343,8893
3626,6992,8894
3627,7843,8895
3628,6426,8896
3629,6025,8897
3630,6895,8898
3631,4852,8899
3632,4916,8901
3633,8562,8903
3634,1970,8904
3635,8939,8906
3636,8563,8908
3637,7866,8912
3638,1971,8914
3639,5398,8915
3640,1972,8917
3641,1973,8919
3642,4844,8922
3643,7171,8924
3644,1974,8925
3645,5400,8928
3646,1975,8929
3647,1976,8930
3648,3574,38553
3649,8166,38555
3650,12395,38557
3651,4377,38568
3652,16242,38569
3653,1250,38572
3654,8167,38576
3655,11502,38579
3656,8168,38580
3657,8169,38581
3658,16237,38582
3659,12613,38586
3660,16243,38587
3661,8170,38588
3662,1254,38591
3663,3531,38592
3664,12829,38593
3665,8171,38596
3666,103,38597
3667,11504,38601
3668,4379,38603
3669,8172,38605
3670,8173,38608
3671,1253,38610
3672,16531,38611
3673,8174,38612
3674,8175,38616
3675,16530,38618
3676,8176,38620
3677,1061,38622
3678,8177,38626
3679,16239,38628
3680,2948,6490
3681,3145,6491
3682,2861,6492
3683,2963,6504
3684,2966,6523
3685,2959,6531
3686,2859,6543
3687,2851,6547
3688,2852,6551
3689,2997,6561
3690,2860,6562
3691,3051,6576
3692,3050,6580
3693,2839,6581
3694,2842,6585
3695,3037,6586
3696,4333,6590
3697,214,6595
3698,2832,6596
3699,215,6597
3700,216,6598
3701,217,6601
3702,1698,6604
3703,218,6608
3704,219,6614
3705,220,6615
3706,221,6616
3707,1776,6620
3708,222,6623
3709,2543,6626
3710,2902,6629
3711,223,6630
3712,10118,24495
3713,16448,24496
3714,6127,24497
3715,6128,24499
3716,10079,24500
3717,16452,24503
3718,4004,24505
3719,591,24506
3720,6129,24509
3721,10175,24510
3722,6130,24512
3723,4133,24513
3724,6131,24516
3725,4134,24520
3726,92,24521
3727,4008,24523
3728,16436,24524
3729,16444,24525
3730,6132,24526
3731,4135,24529
3732,12875,24530
3733,12862,24532
3734,3992,24537
3735,1201,24538
3736,3979,24539
3737,15884,24541
3738,3981,24543
3739,3982,24544
3740,3840,24546
3741,15901,24548
3742,15902,24549
3743,3957,24554
3744,5873,22754
3745,5874,22756
3746,9903,22757
3747,4018,22759
3748,2396,22761
3749,15400,22773
3750,5875,22776
3751,5876,22780
3752,5877,22781
3753,5878,22782
3754,15535,22783
3755,2296,22788
3756,9893,22789
3757,4059,22790
3758,9897,22795
3759,5879,22798
3760,378,22802
3761,4019,22807
3762,3773,22808
3763,15390,22809
3764,5880,22811
3765,15389,22812
3766,5881,22816
3767,2094,22817
3768,13650,22818
3769,2477,22820
3770,5882,22821
3771,4025,22823
3772,1338,22825
3773,3719,22826
3774,9902,22829
3775,1339,22830
3776,8446,40472
3777,8448,40475
3778,33,40481
3779,8444,40483
3780,11710,40486
3781,8449,40488
3782,5439,40496
3783,11711,40500
3784,916,40503
3785,11712,40506
3786,3879,40508
3787,3321,40510
3788,3878,40512
3789,4393,40515
3790,11713,40517
3791,8453,40520
3792,11714,40521
3793,4400,40523
3794,1121,40524
3795,8454,40526
3796,8451,40529
3797,11715,40531
3798,917,40533
3799,11716,40534
3800,8452,40538
3801,3339,40539
3802,8456,40542
3803,3900,40544
3804,5433,40545
3805,8457,40548
3806,11717,40551
3807,5449,40555
3808,6979,30479
3809,2575,30481
3810,6981,30485
3811,2060,30487
3812,6982,30488
3813,10679,30493
3814,6983,30494
3815,2811,30498
3816,301,30503
3817,2064,30504
3818,4230,30505
3819,6936,30508
3820,10680,30511
3821,2733,30513
3822,2769,30515
3823,1797,30516
3824,10681,30518
3825,10682,30519
3826,6880,30520
3827,10683,30521
3828,1798,30524
3829,2741,30526
3830,4087,30530
3831,6985,30532
3832,405,30533
3833,10684,30538
3834,6984,30539
3835,6948,30551
3836,10685,30552
3837,4899,30555
3838,6990,30557
3839,6991,30559
3840,6195,25014
3841,4056,25017
3842,6194,25019
3843,10134,25021
3844,5124,25024
3845,1268,25028
3846,3192,25032
3847,10135,25034
3848,6191,25036
3849,3193,25038
3850,10136,25041
3851,6197,25043
3852,4146,25044
3853,3217,25048
3854,6199,25049
3855,5104,25051
3856,3304,25052
3857,1243,25055
3858,10137,25057
3859,3313,25062
3860,10138,25065
3861,10139,25072
3862,10140,25077
3863,483,25078
3864,10141,25082
3865,6201,25083
3866,10142,25086
3867,1248,25090
3868,87,25093
3869,3532,25095
3870,522,25099
3871,479,25100
3872,15734,22674
3873,117,22677
3874,15643,22688
3875,1308,22691
3876,15723,22692
3877,15730,22694
3878,4112,22695
3879,3762,22696
3880,2367,22699
3881,5865,22702
3882,15674,22710
3883,5866,22712
3884,2268,22714
3885,354,22715
3886,9884,22716
3887,15722,22717
3888,5867,22720
3889,3688,22730
3890,5868,22732
3891,9887,22733
3892,15399,22735
3893,5869,22737
3894,565,22738
3895,5870,22740
3896,9894,22741
3897,5871,22743
3898,4114,22745
3899,4115,22747
3900,5872,22748
3901,15397,22750
3902,3722,22752
3903,15392,22753
3904,13334,19447
3905,5454,19453
3906,16140,19455
3907,11732,19456
3908,5455,19461
3909,16079,19464
3910,13338,19470
3911,5456,19471
3912,5457,19475
3913,16081,19481
3914,11949,19482
3915,5458,19485
3916,9800,19487
3917,13543,19489
3918,5459,19491
3919,16077,19494
3920,15623,19496
3921,5460,19502
3922,920,19503
3923,2050,19504
3924,5461,19507
3925,5462,19511
3926,5463,19513
3927,5464,19515
3928,10201,19516
3929,5465,19518
3930,5466,19520
3931,33,19521
3932,2301,19526
3933,10262,19531
3934,16082,19535
3935,891,19537
3936,14499,52895
3937,14500,52896
3938,680,52905
3939,14502,52906
3940,720,52912
3941,14505,52920
3942,14507,52924
3943,14514,52933
3944,14658,52943
3945,14524,52955
3946,14522,52957
3947,679,52971
3948,14535,52992
3949,681,52994
3950,14538,52999
3951,1566,53003
3952,4233,53005
3953,14549,53027
3954,14559,53038
3955,14553,53044
3956,14570,53070
3957,14563,53072
3958,719,53073
3959,14564,53075
3960,806,53079
3961,14569,53081
3962,9447,53088
3963,14572,53098
3964,14599,53107
3965,14592,53108
3966,14591,53109
3967,14582,53114
3968,2060,9361
3969,3172,9364
3970,2064,9365
3971,3171,9368
3972,296,9369
3973,2121,9372
3974,2550,9375
3975,297,9379
3976,2067,9380
3977,2722,9387
3978,2113,9398
3979,2575,9399
3980,2232,9405
3981,2114,9406
3982,2995,9407
3983,2089,9412
3984,2100,9429
3985,2970,9434
3986,3856,9435
3987,2107,9439
3988,2070,9440
3989,2112,9441
3990,2099,9452
3991,2687,9463
3992,2081,9464
3993,4432,9470
3994,3712,9472
3995,2105,9473
3996,2072,9481
3997,2118,9482
3998,2091,9483
3999,2777,9493
4000,7681,35561
4001,11207,35567
4002,4881,35569
4003,7713,35571
4004,11208,35576
4005,7714,35578
4006,1876,35579
4007,11209,35580
4008,1571,35583
4009,11210,35585
4010,11211,35590
4011,4569,35591
4012,2570,35592
4013,7715,35593
4014,11212,35599
4015,11213,35600
4016,2579,35604
4017,1880,35606
4018,2554,35607
4019,11214,35608
4020,1553,35614
4021,184,35618
4022,11215,35619
4023,11216,35620
4024,7666,35625
4025,11217,35628
4026,11218,35629
4027,7716,35635
4028,1569,35638
4029,11219,35640
4030,2629,35644
4031,11220,35645
4032,2445,11711
4033,7035,11715
4034,7076,11716
4035,2446,11719
4036,2447,11731
4037,9158,11732
4038,2448,11735
4039,2449,11738
4040,2450,11746
4041,24,11748
4042,2451,11752
4043,2452,11753
4044,2453,11756
4045,2454,11761
4046,8329,11767
4047,5822,11769
4048,352,11770
4049,2455,11775
4050,7110,11777
4051,7124,11778
4052,7125,11779
4053,8327,11781
4054,2456,11786
4055,377,11787
4056,8344,11788
4057,8342,11790
4058,2457,11791
4059,5835,11793
4060,2458,11799
4061,5834,11803
4062,7681,11808
4063,2459,11809
4064,716,34915
4065,7616,34923
4066,7608,34939
4067,4307,34943
4068,4308,34978
4069,4309,34999
4070,4310,35055
4071,7634,35062
4072,4311,35092
4073,4312,35106
4074,7844,35164
4075,7837,35172
4076,7652,35188
4077,4313,35203
4078,4314,35216
4079,414,35218
4080,4315,35246
4081,719,35281
4082,4316,35297
4083,4317,35309
4084,7673,35311
4085,4318,35351
4086,4319,35353
4087,4320,35355
4088,4321,35396
4089,7688,35416
4090,720,35433
4091,404,35480
4092,4322,35501
4093,7709,35502
4094,4323,35504
4095,7718,35506
4096,3298,16157
4097,7985,16161
4098,7994,16163
4099,3299,16171
4100,3300,16172
4101,3301,16174
4102,7986,16176
4103,9112,16177
4104,3302,16178
4105,7987,16179
4106,3303,16181
4107,308,16188
4108,7973,16190
4109,5270,16191
4110,7988,16196
4111,7961,16198
4112,6062,16200
4113,107,16201
4114,3304,16204
4115,3305,16205
4116,3306,16206
4117,8503,16209
4118,9106,16213
4119,5706,16214
4120,479,16215
4121,3307,16221
4122,8546,16222
4123,3308,16224
4124,3309,16227
4125,3310,16229
4126,8504,16230
4127,3311,16231
4128,4362,38407
4129,8143,38412
4130,4361,38413
4131,8144,38419
4132,4374,38421
4133,8145,38422
4134,8146,38424
4135,16224,38427
4136,8147,38429
4137,3609,38432
4138,12611,38439
4139,8148,38441
4140,3608,38443
4141,8149,38444
4142,3599,38445
4143,8150,38446
4144,11512,38447
4145,8151,38450
4146,8152,38452
4147,3500,38454
4148,8153,38455
4149,16248,38456
4150,11491,38458
4151,16249,38459
4152,3278,38460
4153,1288,38464
4154,8154,38466
4155,8155,38471
4156,3257,38475
4157,16266,38476
4158,8156,38477
4159,8157,38484
4160,2563,35736
4161,7732,35738
4162,13295,35740
4163,7733,35741
4164,4327,35743
4165,14458,35745
4166,7734,35748
4167,7735,35751
4168,7736,35754
4169,13275,35755
4170,1555,35756
4171,14456,35757
4172,11231,35758
4173,11232,35761
4174,191,35763
4175,400,35765
4176,14452,35766
4177,7737,35768
4178,7738,35769
4179,721,35770
4180,7739,35771
4181,11233,35772
4182,7740,35773
4183,7741,35777
4184,7742,35778
4185,14450,35779
4186,14471,35780
4187,14488,35781
4188,1558,35788
4189,2577,35789
4190,7743,35790
4191,13269,35791
4192,2794,53529
4193,14726,53530
4194,14727,53531
4195,6928,53535
4196,14728,53536
4197,14729,53537
4198,14730,53538
4199,14731,53540
4200,6930,53542
4201,14732,53544
4202,14733,53545
4203,9049,53546
4204,6924,53548
4205,14734,53550
4206,4231,53552
4207,14735,53553
4208,14736,53555
4209,14737,53556
4210,14738,53557
4211,2721,53558
4212,14739,53561
4213,14740,53563
4214,9055,53564
4215,14741,53565
4216,14742,53567
4217,14743,53572
4218,6898,53573
4219,14744,53574
4220,14745,53575
4221,2663,53577
4222,2700,53578
4223,14746,53581
4224,6688,28486
4225,4202,28505
4226,527,28571
4227,6699,28586
4228,6705,28628
4229,4203,28656
4230,4204,28690
4231,669,28692
4232,668,28723
4233,4205,28746
4234,4206,28748
4235,4207,28756
4236,4208,28758
4237,4209,28780
4238,4210,28784
4239,4211,28815
4240,6732,28820
4241,4212,28872
4242,671,28891
4243,4213,28912
4244,4214,28929
4245,6897,28935
4246,415,28946
4247,4215,28967
4248,4216,28975
4249,672,28976
4250,4217,28986
4251,4218,29000
4252,670,29023
4253,4219,29110
4254,211,29129
4255,4220,29144
4256,9839,9872
4257,4610,9882
4258,11001,9883
4259,10731,9886
4260,4611,9887
4261,59,9888
4262,10724,9890
4263,4612,9893
4264,4613,9897
4265,1921,9898
4266,15499,9900
4267,15468,9902
4268,10896,9904
4269,4614,9908
4270,4615,9914
4271,1013,9921
4272,993,9928
4273,991,9929
4274,12179,9933
4275,1740,9935
4276,17275,9940
4277,990,9945
4278,4616,9946
4279,15516,9949
4280,10726,9950
4281,4617,9956
4282,15457,9966
4283,4618,9969
4284,10020,9975
4285,4619,9984
4286,15503,9985
4287,992,9987
4288,9354,7740
4289,1858,7747
4290,4840,7749
4291,7669,7750
4292,8947,7753
4293,1859,7760
4294,5772,7763
4295,7306,7770
4296,6206,7773
4297,9427,7776
4298,8774,7777
4299,5377,7784
4300,6244,7787
4301,6017,7789
4302,1860,7790
4303,7753,7791
4304,4874,7793
4305,5275,7795
4306,9272,7796
4307,9239,7800
4308,5175,7801
4309,5759,7802
4310,6023,7806
4311,7677,7808
4312,1861,7809
4313,1862,7811
4314,1863,7812
4315,5791,7814
4316,4645,7816
4317,6794,7817
4318,1864,7825
4319,4615,7827
4320,25,11275
4321,2364,11281
4322,2,11284
4323,5420,11288
4324,2365,11289
4325,2366,11292
4326,2367,11294
4327,26,11297
4328,6308,11298
4329,2368,11299
4330,2369,11300
4331,2370,11301
4332,2371,11303
4333,2372,11305
4334,6326,11310
4335,5907,11312
4336,5903,11313
4337,5904,11315
4338,2373,11317
4339,5892,11318
4340,2374,11324
4341,8937,11326
4342,8938,11328
4343,2375,11330
4344,5910,11337
4345,2376,11339
4346,8933,11340
4347,6320,11342
4348,8916,11343
4349,5417,11346
4350,7031,11350
4351,7454,11351
4352,509,36909
4353,11345,36910
4354,12734,36911
4355,7925,36917
4356,12730,36918
4357,12716,36919
4358,3327,36921
4359,3356,36924
4360,11349,36925
4361,508,36926
4362,1258,36932
4363,11362,36935
4364,7926,36938
4365,11352,36939
4366,7927,36941
4367,7928,36942
4368,7929,36943
4369,1098,36945
4370,1099,36947
4371,16574,36954
4372,7930,36956
4373,16568,36966
4374,1257,36969
4375,16407,36971
4376,7931,36972
4377,3948,36975
4378,16387,36977
4379,11353,36979
4380,7932,36981
4381,3947,36982
4382,7933,36984
4383,3315,36985
4384,3849,19287
4385,3850,19289
4386,150,19290
4387,5707,19292
4388,6545,19293
4389,6391,19294
4390,3851,19297
4391,3852,19298
4392,8957,19301
4393,3853,19303
4394,6392,19306
4395,6388,19307
4396,3854,19310
4397,3855,19311
4398,3856,19312
4399,3857,19319
4400,9221,19324
4401,6126,19325
4402,7898,19326
4403,3858,19327
4404,6389,19329
4405,6390,19332
4406,3859,19334
4407,9475,19335
4408,3860,19336
4409,6286,19340
4410,6288,19341
4411,3861,19343
4412,6289,19347
4413,8826,19354
4414,9134,19358
4415,8830,19359
4416,336,10531
4417,2517,10535
4418,337,10548
4419,3160,10552
4420,2515,10554
4421,338,10556
4422,2266,10570
4423,2390,10582
4424,2389,10591
4425,2384,10594
4426,339,10596
4427,3573,10600
4428,2439,10601
4429,2442,10605
4430,340,10612
4431,341,10618
4432,2332,10620
4433,342,10626
4434,4507,10633
4435,2464,10634
4436,2475,10644
4437,2400,10664
4438,2407,10669
4439,2411,10670
4440,343,10679
4441,344,10685
4442,2404,10695
4443,2357,10696
4444,2347,10697
4445,2394,10718
4446,2386,10724
4447,3610,10729
4448,803,48179
4449,12741,48181
4450,12835,48184
4451,12744,48197
4452,12740,48200
4453,1062,48207
4454,12805,48209
4455,543,48218
4456,1993,48229
4457,12759,48233
4458,9415,48235
4459,12755,48239
4460,12761,48240
4461,12776,48244
4462,12763,48254
4463,12781,48259
4464,12774,48271
4465,12779,48287
4466,12782,48301
4467,12799,48312
4468,12789,48320
4469,12798,48329
4470,12855,48330
4471,12794,48334
4472,12792,48335
4473,4505,48354
4474,4355,48358
4475,12844,48361
4476,12806,48366
4477,12840,48394
4478,12821,48400
4479,12825,48402
4480,8819,43002
4481,8818,43003
4482,8820,43005
4483,11952,43006
4484,8822,43011
4485,8815,43012
4486,8823,43014
4487,11953,43015
4488,11954,43016
4489,8816,43017
4490,5437,43019
4491,1301,43020
4492,11955,43021
4493,2301,43023
4494,11956,43025
4495,8826,43033
4496,8824,43034
4497,8827,43040
4498,8825,43042
4499,1328,43043
4500,11957,43046
4501,125,43047
4502,8829,43049
4503,11958,43050
4504,1329,43051
4505,8817,43052
4506,11959,43056
4507,11960,43060
4508,11961,43061
4509,8830,43062
4510,3785,43063
4511,4612,43071
4512,10353,27238
4513,2013,27245
4514,6503,27248
4515,6504,27251
4516,6505,27254
4517,10356,27256
4518,2057,27258
4519,4184,27260
4520,13524,27262
4521,3786,27263
4522,4187,27265
4523,6506,27269
4524,487,27272
4525,13569,27273
4526,6507,27285
4527,6508,27287
4528,1123,27288
4529,1124,27290
4530,4186,27291
4531,13534,27293
4532,13537,27295
4533,6509,27296
4534,13536,27300
4535,6510,27301
4536,10360,27304
4537,6511,27305
4538,13517,27309
4539,6512,27310
4540,6513,27314
4541,13496,27316
4542,6514,27317
4543,13724,27319
4544,1138,15455
4545,16532,15459
4546,12035,15465
4547,1431,15470
4548,1482,15472
4549,5103,15476
4550,11497,15483
4551,2009,15484
4552,11487,15486
4553,1971,15489
4554,16524,15490
4555,12137,15491
4556,5104,15493
4557,16226,15494
4558,5105,15496
4559,5106,15501
4560,16261,15513
4561,10056,15517
4562,5107,15518
4563,5108,15520
4564,11393,15521
4565,16236,15524
4566,11494,15525
4567,13980,15529
4568,11490,15530
4569,16185,15532
4570,5109,15534
4571,5110,15535
4572,5111,15537
4573,10147,15539
4574,5112,15546
4575,13131,15548
4576,4724,35197
4577,7653,35200
4578,11166,35202
4579,11167,35207
4580,1608,35208
4581,2883,35212
4582,11168,35214
4583,11169,35220
4584,7655,35221
4585,7654,35224
4586,2858,35227
4587,11170,35231
4588,11171,35232
4589,2373,35236
4590,11172,35238
4591,2613,35240
4592,7634,35242
4593,11173,35244
4594,1662,35247
4595,11174,35252
4596,2614,35254
4597,202,35256
4598,11175,35257
4599,11176,35258
4600,11177,35259
4601,7658,35260
4602,2318,35261
4603,11178,35265
4604,11179,35266
4605,4576,35267
4606,7659,35268
4607,2836,35270
4608,8335,11887
4609,2478,11889
4610,8334,11890
4611,2479,11896
4612,5831,11899
4613,2480,11900
4614,5825,11902
4615,8326,11903
4616,2481,11908
4617,7,11909
4618,5860,11910
4619,8337,11911
4620,2482,11913
4621,2483,11915
4622,8336,11921
4623,5861,11928
4624,2484,11929
4625,5765,11930
4626,7678,11931
4627,7503,11932
4628,5531,11935
4629,5898,11937
4630,2485,11938
4631,9492,11939
4632,2486,11940
4633,2487,11942
4634,2488,11943
4635,2489,11944
4636,2490,11951
4637,379,11952
4638,2491,11954
4639,5896,11956
4640,2239,8166
4641,1984,8167
4642,2042,8168
4643,1983,8171
4644,1916,8178
4645,2976,8180
4646,272,8183
4647,1917,8185
4648,1961,8186
4649,2032,8187
4650,2974,8188
4651,1894,8189
4652,1998,8190
4653,1953,8197
4654,1903,8202
4655,2033,8204
4656,1911,8206
4657,1890,8207
4658,1902,8208
4659,1912,8209
4660,4195,8211
4661,2393,8212
4662,3465,8214
4663,3087,8215
4664,1918,8218
4665,2898,8225
4666,2981,8228
4667,3426,8230
4668,1940,8237
4669,1944,8239
4670,1913,8243
4671,3121,8244
4672,4721,287
4673,8325,289
4674,4685,295
4675,4811,296
4676,8294,299
4677,8293,300
4678,8292,301
4679,8291,303
4680,7041,304
4681,7042,305
4682,7034,307
4683,818,308
4684,4689,309
4685,819,314
4686,820,316
4687,8295,318
4688,821,320
4689,8302,321
4690,822,322
4691,823,324
4692,824,326
4693,825,327
4694,826,331
4695,7126,332
4696,8340,335
4697,8349,339
4698,8348,340
4699,4668,341
4700,4526,342
4701,4782,345
4702,827,348
4703,4708,354
4704,16918,59283
4705,7763,59284
4706,16919,59287
4707,3184,59288
4708,16920,59289
4709,16921,59293
4710,16922,59294
4711,16923,59295
4712,16924,59300
4713,7195,59302
4714,16925,59303
4715,3173,59304
4716,16926,59308
4717,7823,59310
4718,16927,59312
4719,3174,59314
4720,16928,59315
4721,7767,59316
4722,16929,59320
4723,16930,59322
4724,16931,59323
4725,16932,59325
4726,16933,59327
4727,2909,59328
4728,16934,59330
4729,6790,59332
4730,451,59337
4731,16935,59338
4732,7759,59339
4733,722,59341
4734,7770,59344
4735,16936,59346
4736,52,33761
4737,7446,33763
4738,11016,33766
4739,7342,33769
4740,4805,33770
4741,2385,33776
4742,965,33778
4743,2283,33780
4744,7449,33786
4745,7451,33788
4746,7452,33795
4747,11017,33797
4748,304,33798
4749,11018,33799
4750,7448,33800
4751,4775,33804
4752,11019,33815
4753,7454,33816
4754,7455,33820
4755,11020,33822
4756,11021,33823
4757,11022,33824
4758,7456,33827
4759,7450,33829
4760,3949,33830
4761,11023,33836
4762,7453,33837
4763,7459,33839
4764,11024,33842
4765,2407,33843
4766,2411,33847
4767,2400,33855
4768,4932,7275
4769,1809,7276
4770,9119,7277
4771,1810,7283
4772,1811,7285
4773,1812,7287
4774,193,7288
4775,1813,7289
4776,4951,7290
4777,9138,7292
4778,9137,7294
4779,1814,7297
4780,1815,7302
4781,1816,7303
4782,1817,7304
4783,1818,7306
4784,4947,7307
4785,1819,7308
4786,231,7310
4787,1820,7315
4788,1821,7317
4789,1822,7318
4790,4849,7320
4791,1823,7321
4792,1824,7322
4793,4950,7323
4794,9009,7324
4795,9008,7325
4796,1825,7327
4797,1826,7328
4798,1827,7331
4799,1828,7336
4800,993,1786
4801,2143,1789
4802,994,1791
4803,2146,1795
4804,59,1798
4805,4302,1799
4806,60,1802
4807,61,1804
4808,2159,1805
4809,2191,1810
4810,2197,1811
4811,2190,1812
4812,2434,1813
4813,2199,1819
4814,62,1820
4815,2142,1821
4816,2158,1822
4817,2248,1827
4818,2211,1831
4819,63,1842
4820,2209,1843
4821,2244,1844
4822,2210,1845
4823,2247,1852
4824,64,1853
4825,2251,1856
4826,65,1858
4827,2195,1859
4828,4271,1860
4829,4272,1864
4830,2223,1869
4831,2222,1870
4832,724,58609
4833,16807,58619
4834,16671,58626
4835,9485,58629
4836,16673,58630
4837,16672,58633
4838,46,58643
4839,16676,58646
4840,16694,58674
4841,695,58685
4842,16692,58697
4843,16695,58704
4844,16728,58730
4845,16714,58739
4846,16717,58750
4847,16718,58752
4848,9486,58771
4849,16726,58772
4850,16737,58785
4851,9487,58788
4852,16735,58801
4853,16742,58808
4854,703,58810
4855,16745,58823
4856,701,58829
4857,16754,58839
4858,16762,58855
4859,16757,58864
4860,4516,58868
4861,9488,58872
4862,16801,58875
4863,16767,58892
4864,1354,4555
4865,1355,4557
4866,1356,4560
4867,1357,4562
4868,5890,4563
4869,1358,4566
4870,1359,4568
4871,1360,4569
4872,1361,4570
4873,1362,4571
4874,4778,4572
4875,1363,4573
4876,125,4575
4877,5886,4576
4878,5874,4578
4879,1364,4579
4880,8981,4580
4881,4793,4585
4882,1365,4586
4883,1366,4587
4884,1367,4590
4885,8710,4595
4886,5014,4596
4887,5013,4597
4888,4582,4603
4889,5391,4604
4890,1368,4605
4891,1369,4606
4892,5783,4607
4893,8552,4609
4894,1370,4611
4895,8556,4612
4896,4107,22405
4897,5461,22406
4898,5823,22409
4899,1307,22413
4900,2077,22414
4901,5822,22416
4902,9848,22417
4903,4109,22421
4904,5407,22431
4905,9849,22436
4906,3738,22439
4907,5827,22441
4908,5825,22449
4909,5826,22451
4910,9850,22452
4911,3730,22457
4912,5829,22462
4913,9851,22464
4914,3890,22465
4915,9852,22466
4916,9853,22467
4917,9854,22471
4918,2361,22473
4919,4674,22477
4920,9855,22479
4921,5834,22481
4922,4671,22483
4923,9856,22489
4924,5833,22490
4925,4676,22493
4926,2513,22503
4927,9857,22504
4928,15688,56005
4929,15686,56006
4930,15685,56009
4931,15689,56016
4932,15691,56018
4933,116,56020
4934,15718,56036
4935,15697,56037
4936,15702,56043
4937,15709,56053
4938,807,56075
4939,15714,56078
4940,122,56104
4941,15728,56106
4942,15733,56115
4943,15736,56125
4944,15745,56144
4945,15748,56149
4946,15744,56150
4947,15752,56164
4948,15755,56168
4949,15757,56171
4950,15763,56187
4951,571,56190
4952,15769,56204
4953,15774,56213
4954,15777,56219
4955,15792,56230
4956,15780,56232
4957,15784,56238
4958,15785,56240
4959,15787,56243
4960,16593,58405
4961,509,58407
4962,16594,58409
4963,16595,58411
4964,4351,58412
4965,16596,58416
4966,16597,58417
4967,4149,58418
4968,4151,58422
4969,3378,58423
4970,6193,58426
4971,366,58427
4972,16598,58428
4973,2907,58430
4974,16599,58432
4975,16600,58433
4976,16601,58434
4977,16602,58435
4978,16603,58436
4979,16604,58438
4980,16605,58440
4981,16606,58442
4982,16607,58444
4983,16608,58445
4984,16609,58447
4985,2978,58448
4986,16610,58452
4987,458,58453
4988,16611,58454
4989,16612,58458
4990,16613,58459
4991,7367,58460
4992,5872,22763
4993,5737,22765
4994,2396,22767
4995,9890,22768
4996,4747,22769
4997,4793,22771
4998,5351,22772
4999,9891,22777
5000,9892,22779
5001,5876,22784
5002,5877,22785
5003,4810,22787
5004,9893,22791
5005,9894,22792
5006,5875,22794
5007,9895,22796
5008,9896,22799
5009,5879,22800
5010,5878,22803
5011,9897,22805
5012,4019,22810
5013,5880,22814
5014,9898,22822
5015,3719,22827
5016,2477,22828
5017,4025,22833
5018,9899,22835
5019,5882,22837
5020,5724,22838
5021,9900,22839
5022,5811,22840
5023,4046,22842
5024,10535,28921
5025,2799,28923
5026,2653,28925
5027,6739,28930
5028,291,28941
5029,6743,28942
5030,4826,28948
5031,1931,28949
5032,6744,28950
5033,10536,28951
5034,6745,28953
5035,10537,28957
5036,4876,28960
5037,1542,28961
5038,6746,28963
5039,4214,28964
5040,1983,28965
5041,2601,28969
5042,1543,28972
5043,10538,28978
5044,4890,28981
5045,10539,28982
5046,6749,28988
5047,4889,28991
5048,4862,28994
5049,6741,28995
5050,10540,28996
5051,2641,29001
5052,2643,29005
5053,4869,29008
5054,10541,29009
5055,6751,29011
5056,11538,38993
5057,2338,38999
5058,8227,39001
5059,2302,39002
5060,4692,39003
5061,11539,39006
5062,8229,39010
5063,11540,39011
5064,2290,39013
5065,11541,39014
5066,11542,39017
5067,8225,39018
5068,850,39019
5069,2473,39029
5070,8232,39033
5071,4729,39036
5072,8234,39037
5073,11543,39040
5074,11544,39041
5075,11545,39045
5076,837,39048
5077,8236,39059
5078,11546,39062
5079,8238,39065
5080,5446,39069
5081,11547,39073
5082,8239,39075
5083,4716,39076
5084,8240,39078
5085,839,39079
5086,11548,39080
5087,3887,39083
5088,4149,2991
5089,3943,2992
5090,84,2997
5091,3302,2999
5092,1283,3002
5093,1160,3003
5094,1161,3005
5095,1246,3006
5096,3218,3007
5097,3231,3008
5098,3227,3009
5099,3922,3010
5100,3369,3011
5101,3366,3012
5102,3379,3014
5103,1267,3015
5104,3358,3017
5105,1260,3018
5106,1261,3019
5107,1262,3020
5108,1263,3021
5109,1265,3025
5110,1184,3026
5111,3370,3027
5112,1244,3028
5113,3933,3029
5114,1185,3030
5115,1186,3031
5116,1211,3032
5117,85,3033
5118,1268,3034
5119,3192,3035
5120,5108,15588
5121,5117,15593
5122,9584,15635
5123,5121,15671
5124,9585,15673
5125,9586,15684
5126,5126,15718
5127,5127,15727
5128,1434,15736
5129,9587,15746
5130,9588,15761
5131,5129,15762
5132,1462,15801
5133,1438,15819
5134,9589,15855
5135,5142,15881
5136,1133,15931
5137,4558,15937
5138,1106,15950
5139,9590,16001
5140,181,16018
5141,152,16026
5142,5154,16038
5143,4541,16053
5144,5151,16058
5145,4599,16072
5146,9591,16083
5147,5134,16107
5148,5159,16111
5149,9592,16132
5150,1150,16145
5151,1420,16149
5152,6755,29476
5153,6825,29477
5154,10577,29478
5155,3131,29479
5156,10578,29483
5157,6828,29484
5158,6831,29493
5159,6833,29497
5160,10579,29499
5161,6832,29501
5162,10580,29502
5163,6834,29503
5164,5037,29504
5165,6835,29506
5166,10581,29508
5167,3187,29511
5168,5086,29513
5169,1669,29519
5170,3169,29521
5171,10582,29522
5172,6836,29526
5173,3000,29536
5174,10583,29538
5175,10584,29540
5176,6837,29544
5177,5076,29547
5178,6840,29548
5179,3013,29550
5180,2994,29556
5181,6842,29557
5182,4207,29559
5183,6843,29561
5184,708,33970
5185,4290,33974
5186,4291,33977
5187,4292,34028
5188,4293,34048
5189,4294,34058
5190,709,34085
5191,4295,34105
5192,4296,34131
5193,7495,34155
5194,8297,34182
5195,4297,34185
5196,8296,34212
5197,4298,34214
5198,711,34247
5199,4299,34253
5200,8346,34261
5201,7524,34362
5202,4300,34391
5203,7529,34430
5204,331,34431
5205,713,34454
5206,712,34471
5207,4301,34557
5208,374,34563
5209,7567,34678
5210,4302,34722
5211,4303,34793
5212,4304,34832
5213,4305,34839
5214,715,34850
5215,4306,34888
5216,759,41022
5217,764,41263
5218,768,41376
5219,772,42011
5220,798,42217
5221,776,42497
5222,777,42569
5223,779,42877
5224,787,42931
5225,782,43315
5226,802,47099
5227,803,47379
5228,851,1
5229,2398,2
5230,4252,3
5231,852,5
5232,853,6
5233,959,8
5234,2416,9
5235,854,10
5236,960,13
5237,2385,17
5238,965,18
5239,2294,19
5240,4284,21
5241,2378,22
5242,856,23
5243,2380,25
5244,968,26
5245,2381,27
5246,857,28
5247,2503,30
5248,3342,16409
5249,7974,16410
5250,5225,16416
5251,7983,16417
5252,9094,16421
5253,3343,16423
5254,3344,16424
5255,3345,16427
5256,3346,16433
5257,3347,16434
5258,3348,16439
5259,9483,16440
5260,3349,16441
5261,3350,16444
5262,3351,16448
5263,7979,16451
5264,5266,16452
5265,3352,16453
5266,3353,16455
5267,3354,16456
5268,6243,16468
5269,506,16471
5270,6237,16472
5271,5347,16473
5272,7379,16474
5273,3355,16475
5274,6063,16477
5275,309,16478
5276,6228,16479
5277,3356,16480
5278,508,16481
5279,303,16483
5280,10059,5594
5281,9500,5598
5282,9954,5615
5283,11924,5621
5284,10040,5625
5285,14878,5626
5286,9596,5647
5287,9931,5652
5288,14624,5718
5289,10670,5733
5290,14447,5737
5291,14498,5770
5292,11135,5771
5293,11171,5806
5294,14575,5809
5295,9541,5824
5296,11140,5848
5297,11153,5858
5298,11152,5866
5299,11150,5874
5300,4567,5879
5301,11143,5880
5302,14509,5897
5303,10678,5913
5304,12200,5947
5305,9551,5963
5306,10605,5964
5307,14813,5967
5308,12203,5974
5309,10673,5977
5310,11197,5982
5311,14856,5996
5312,14768,53637
5313,6976,53638
5314,14769,53641
5315,684,53642
5316,9127,53643
5317,14770,53645
5318,14771,53646
5319,436,53647
5320,14772,53650
5321,14773,53651
5322,14774,53652
5323,14775,53653
5324,14776,53654
5325,14777,53655
5326,6986,53656
5327,14778,53657
5328,1799,53658
5329,14779,53659
5330,14780,53660
5331,14781,53662
5332,14782,53663
5333,14783,53664
5334,14784,53668
5335,437,53669
5336,14785,53671
5337,14786,53674
5338,14787,53675
5339,14788,53676
5340,14789,53679
5341,2536,53680
5342,14790,53681
5343,402,53684
5344,8225,355
5345,8224,358
5346,828,359
5347,829,360
5348,8255,361
5349,830,365
5350,831,368
5351,8229,369
5352,832,370
5353,9474,371
5354,4692,372
5355,833,374
5356,8227,375
5357,4705,379
5358,4710,381
5359,8272,382
5360,4789,390
5361,5426,391
5362,5412,392
5363,7140,397
5364,5300,398
5365,8286,399
5366,4794,401
5367,8283,403
5368,4795,404
5369,7144,405
5370,4700,407
5371,8273,408
5372,5414,409
5373,5411,411
5374,8217,412
5375,8251,413
5376,7213,32176
5377,2971,32177
5378,10861,32179
5379,2866,32181
5380,7214,32184
5381,16657,32188
5382,3188,32189
5383,7215,32193
5384,7216,32194
5385,208,32197
5386,13323,32201
5387,2941,32203
5388,16697,32206
5389,7217,32207
5390,16687,32208
5391,7218,32211
5392,16690,32212
5393,10867,32215
5394,16660,32217
5395,2919,32220
5396,4261,32221
5397,7219,32225
5398,16796,32227
5399,17317,32230
5400,7220,32231
5401,10868,32232
5402,7221,32235
5403,2228,32237
5404,7222,32238
5405,2259,32241
5406,7223,32242
5407,13156,32243
5408,1699,4409
5409,2538,4410
5410,1371,4412
5411,4501,4417
5412,2642,4418
5413,2636,4419
5414,1760,4420
5415,1715,4421
5416,4091,4423
5417,1702,4427
5418,2646,4429
5419,1703,4431
5420,1762,4433
5421,1763,4434
5422,2602,4435
5423,1764,4439
5424,2612,4441
5425,2655,4442
5426,1707,4446
5427,1708,4450
5428,1709,4451
5429,2622,4452
5430,2616,4453
5431,2619,4456
5432,1700,4459
5433,1711,4461
5434,1712,4462
5435,1756,4463
5436,1757,4465
5437,1713,4466
5438,1758,4469
5439,1759,4470
5440,6586,27785
5441,4190,27786
5442,6587,27790
5443,3679,27793
5444,6588,27796
5445,16373,27800
5446,3435,27801
5447,16359,27805
5448,10415,27809
5449,10413,27810
5450,3333,27811
5451,13836,27812
5452,16356,27816
5453,3450,27819
5454,10416,27820
5455,3449,27825
5456,16371,27826
5457,3254,27834
5458,6589,27836
5459,16259,27837
5460,3250,27840
5461,10423,27842
5462,3251,27843
5463,521,27844
5464,16255,27847
5465,1276,27851
5466,10419,27852
5467,1277,27857
5468,10424,27861
5469,6590,27865
5470,6591,27866
5471,1946,27868
5472,7492,34138
5473,357,34139
5474,17018,34140
5475,17021,34141
5476,11627,34143
5477,48,34146
5478,13907,34147
5479,11067,34153
5480,11061,34154
5481,7493,34162
5482,3926,34163
5483,17103,34166
5484,7494,34167
5485,968,34169
5486,11063,34171
5487,4286,34172
5488,14019,34174
5489,2510,34176
5490,7495,34177
5491,11060,34178
5492,7496,34179
5493,2405,34180
5494,14009,34186
5495,2274,34187
5496,7497,34188
5497,17044,34190
5498,17105,34192
5499,2279,34195
5500,2398,34198
5501,308,34200
5502,7498,34202
5503,7499,34204
5504,5008,58879
5505,4516,58880
5506,16763,58882
5507,16764,58885
5508,2824,58886
5509,16765,58887
5510,2215,58888
5511,2131,58893
5512,16766,58895
5513,16767,58896
5514,16768,58898
5515,2915,58899
5516,2918,58900
5517,16769,58903
5518,16770,58911
5519,16771,58912
5520,7447,58913
5521,16772,58914
5522,4997,58915
5523,16773,58917
5524,16774,58919
5525,2913,58921
5526,16775,58922
5527,16776,58927
5528,16777,58928
5529,16778,58929
5530,16779,58930
5531,7426,58931
5532,16780,58932
5533,16781,58933
5534,16782,58935
5535,2816,58937
5536,15854,56432
5537,8485,56433
5538,15855,56436
5539,15856,56438
5540,15857,56439
5541,15858,56441
5542,1186,56443
5543,6188,56445
5544,3928,56446
5545,15859,56447
5546,15860,56448
5547,15861,56451
5548,15862,56454
5549,15863,56458
5550,15864,56462
5551,6173,56463
5552,15865,56464
5553,15866,56465
5554,94,56466
5555,15867,56468
5556,3305,56469
5557,15868,56470
5558,7941,56471
5559,15869,56474
5560,5485,56475
5561,6189,56477
5562,6181,56480
5563,15870,56482
5564,6178,56484
5565,15871,56486
5566,6187,56488
5567,588,56490
5568,10639,30130
5569,10640,30132
5570,4896,30133
5571,6932,30138
5572,4924,30141
5573,10641,30144
5574,10642,30147
5575,10643,30148
5576,6933,30149
5577,6931,30152
5578,10644,30153
5579,10645,30155
5580,2672,30157
5581,10646,30167
5582,6937,30168
5583,196,30170
5584,6938,30172
5585,10647,30173
5586,10648,30180
5587,2544,30182
5588,10649,30184
5589,6939,30189
5590,195,30190
5591,4818,30195
5592,10650,30196
5593,6941,30198
5594,10651,30204
5595,4814,30205
5596,10652,30206
5597,2564,30211
5598,2565,30214
5599,10653,30215
5600,5646,21086
5601,13886,21087
5602,3138,21088
5603,14068,21089
5604,2671,21092
5605,15134,21095
5606,9778,21096
5607,5647,21097
5608,14125,21098
5609,9713,21099
5610,5648,21100
5611,5649,21103
5612,9769,21106
5613,298,21108
5614,5650,21110
5615,9770,21111
5616,5651,21112
5617,9767,21113
5618,5652,21116
5619,5653,21117
5620,5654,21119
5621,5655,21122
5622,5656,21125
5623,9747,21127
5624,15289,21135
5625,5657,21142
5626,5658,21145
5627,15180,21147
5628,14209,21150
5629,5659,21162
5630,5660,21168
5631,5661,21171
5632,12020,43698
5633,8914,43707
5634,12021,43709
5635,8915,43712
5636,8916,43719
5637,1437,43721
5638,12022,43724
5639,1347,43726
5640,15300,43729
5641,1346,43731
5642,8917,43732
5643,2673,43734
5644,8918,43735
5645,13913,43737
5646,8919,43738
5647,13921,43739
5648,1345,43740
5649,8920,43743
5650,8921,43744
5651,15310,43745
5652,15326,43746
5653,8922,43747
5654,15322,43748
5655,13926,43749
5656,1349,43752
5657,15321,43756
5658,12027,43757
5659,2011,43758
5660,8923,43759
5661,8924,43760
5662,4464,43765
5663,13914,43766
5664,5787,10563
5665,2261,10564
5666,5911,10565
5667,2262,10567
5668,5470,10569
5669,2263,10572
5670,7626,10573
5671,306,10580
5672,2264,10584
5673,8460,10585
5674,2265,10587
5675,7136,10588
5676,5737,10592
5677,6315,10593
5678,5826,10595
5679,2266,10597
5680,7095,10603
5681,7091,10606
5682,8566,10608
5683,2267,10611
5684,8262,10619
5685,9493,10621
5686,2268,10624
5687,2269,10625
5688,8270,10630
5689,8267,10631
5690,342,10632
5691,8579,10637
5692,7133,10639
5693,339,10640
5694,8464,10648
5695,8463,10650
5696,778,43388
5697,8877,43389
5698,15532,43393
5699,3969,43395
5700,3966,43397
5701,12000,43398
5702,4453,43401
5703,1932,43405
5704,12496,43409
5705,13595,43410
5706,2344,43415
5707,8878,43416
5708,2526,43420
5709,13584,43421
5710,15614,43423
5711,8879,43426
5712,2000,43427
5713,15021,43432
5714,8880,43433
5715,13612,43434
5716,8881,43436
5717,781,43438
5718,1523,43439
5719,8882,43442
5720,15611,43448
5721,12001,43451
5722,8883,43453
5723,3987,43454
5724,8884,43455
5725,11999,43458
5726,8885,43461
5727,8886,43466
5728,8451,40492
5729,8452,40493
5730,11712,40494
5731,11750,40495
5732,4400,40499
5733,916,40501
5734,16106,40502
5735,3879,40504
5736,3321,40507
5737,3878,40509
5738,4393,40511
5739,8453,40513
5740,4399,40514
5741,16101,40516
5742,3301,40518
5743,8454,40522
5744,13722,40527
5745,11715,40530
5746,8455,40535
5747,3339,40537
5748,8456,40540
5749,3900,40541
5750,8457,40546
5751,11747,40547
5752,3877,40549
5753,11717,40550
5754,13696,40552
5755,915,40554
5756,11729,40556
5757,11718,40558
5758,16119,40563
5759,13686,40564
5760,10495,16954
5761,12462,16958
5762,1857,16963
5763,15283,16964
5764,1048,16967
5765,12608,16971
5766,5226,16974
5767,1486,16975
5768,10452,16981
5769,1049,16986
5770,10490,16997
5771,1473,16999
5772,5227,17006
5773,5228,17007
5774,11460,17011
5775,11854,17019
5776,160,17026
5777,9940,17031
5778,10493,17033
5779,9945,17036
5780,14959,17037
5781,1067,17038
5782,1042,17050
5783,1478,17053
5784,5229,17058
5785,10486,17059
5786,10374,17060
5787,5230,17061
5788,9749,17063
5789,3434,17064
5790,11457,17066
5791,9990,17069
5792,1352,11762
5793,4779,11763
5794,4780,11764
5795,11048,11766
5796,11593,11768
5797,13643,11771
5798,28,11773
5799,17036,11774
5800,4781,11776
5801,17038,11782
5802,17028,11784
5803,15320,11792
5804,11236,11795
5805,4782,11796
5806,1886,11797
5807,4783,11802
5808,11589,11804
5809,825,11807
5810,1348,11812
5811,30,11814
5812,11586,11815
5813,13636,11822
5814,11230,11824
5815,4784,11825
5816,9899,11828
5817,2276,11829
5818,4785,11830
5819,828,11833
5820,4786,11834
5821,17056,11835
5822,4787,11844
5823,11055,11853
5824,9424,49206
5825,13131,49208
5826,4500,49210
5827,4217,49211
5828,13132,49212
5829,13133,49213
5830,13134,49217
5831,285,49218
5832,13135,49219
5833,13136,49224
5834,6742,49227
5835,13137,49228
5836,13138,49232
5837,1926,49233
5838,13139,49235
5839,13140,49237
5840,13141,49239
5841,3224,49240
5842,13142,49241
5843,9362,49242
5844,9426,49244
5845,9425,49245
5846,13143,49246
5847,13144,49248
5848,13145,49249
5849,13146,49250
5850,13147,49252
5851,13148,49254
5852,670,49255
5853,13149,49257
5854,13150,49258
5855,13151,49259
5856,2438,31096
5857,2161,31097
5858,2414,31100
5859,7066,31102
5860,2453,31105
5861,10745,31107
5862,10746,31109
5863,7068,31110
5864,10747,31111
5865,10748,31112
5866,4767,31115
5867,10749,31116
5868,2456,31117
5869,7069,31121
5870,7071,31123
5871,2511,31127
5872,980,31131
5873,4243,31136
5874,10750,31137
5875,7072,31138
5876,4755,31140
5877,7073,31144
5878,4761,31145
5879,10751,31147
5880,2444,31148
5881,7074,31151
5882,10752,31153
5883,7075,31160
5884,10753,31162
5885,2141,31163
5886,7076,31166
5887,2446,31168
5888,9297,44803
5889,4479,44804
5890,790,44809
5891,476,44832
5892,4480,44847
5893,9076,44867
5894,450,44881
5895,443,44907
5896,155,44923
5897,4481,44959
5898,9111,45042
5899,4482,45050
5900,433,45057
5901,791,45075
5902,4483,45116
5903,9421,45136
5904,9396,45183
5905,4484,45186
5906,792,45194
5907,253,45196
5908,436,45226
5909,4485,45265
5910,581,45266
5911,437,45272
5912,9172,45291
5913,9142,45384
5914,4486,45396
5915,793,45407
5916,9145,45431
5917,9149,45443
5918,402,45489
5919,9168,45508
5920,6455,26902
5921,12815,26904
5922,3571,26907
5923,1023,26911
5924,6456,26913
5925,12831,26916
5926,6457,26917
5927,13786,26924
5928,3245,26925
5929,6458,26927
5930,6459,26929
5931,10322,26931
5932,10319,26934
5933,6460,26937
5934,12827,26938
5935,3995,26940
5936,12735,26943
5937,3261,26944
5938,12775,26946
5939,12405,26947
5940,6461,26950
5941,6462,26956
5942,12739,26957
5943,10323,26960
5944,3991,26961
5945,13972,26963
5946,6463,26965
5947,6464,26966
5948,4180,26971
5949,6465,26973
5950,3196,26974
5951,6466,26977
5952,2865,1339
5953,1629,1340
5954,2874,1342
5955,1630,1346
5956,44,1348
5957,2876,1350
5958,1575,1353
5959,4303,1354
5960,2909,1356
5961,2992,1357
5962,1586,1360
5963,1628,1361
5964,1587,1362
5965,3173,1364
5966,3174,1365
5967,1626,1366
5968,1588,1367
5969,45,1368
5970,3179,1369
5971,1640,1370
5972,1678,1372
5973,1679,1373
5974,1618,1374
5975,1681,1375
5976,3118,1376
5977,46,1378
5978,1585,1380
5979,3159,1382
5980,1589,1383
5981,1636,1385
5982,1576,1388
5983,1577,1389
5984,3316,45119
5985,1847,45120
5986,9103,45126
5987,9104,45127
5988,9105,45128
5989,9106,45129
5990,9107,45131
5991,1841,45137
5992,14137,45141
5993,431,45142
5994,12165,45146
5995,9108,45147
5996,13363,45148
5997,261,45152
5998,9109,45155
5999,14136,45157
6000,13353,45158
6001,9110,45159
6002,13355,45160
6003,9111,45164
6004,3096,45167
6005,9112,45168
6006,9113,45169
6007,12174,45171
6008,12171,45173
6009,1854,45177
6010,1416,45184
6011,256,45187
6012,13348,45188
6013,2801,45193
6014,14131,45199
6015,14149,45200
6016,11898,42380
6017,4417,42382
6018,3142,42383
6019,4442,42393
6020,8718,42395
6021,8705,42398
6022,391,42399
6023,8717,42400
6024,8695,42402
6025,218,42403
6026,8719,42405
6027,11899,42406
6028,2689,42409
6029,11900,42413
6030,2687,42418
6031,3143,42420
6032,11901,42421
6033,3499,42422
6034,11902,42427
6035,2062,42428
6036,310,42429
6037,11903,42431
6038,11904,42432
6039,1730,42433
6040,1433,42434
6041,173,42435
6042,1995,42436
6043,1430,42441
6044,8724,42443
6045,3470,42452
6046,239,42454
6047,11905,42458
6048,2214,41321
6049,13799,41332
6050,335,41334
6051,11798,41335
6052,2202,41341
6053,8564,41344
6054,8565,41345
6055,13764,41346
6056,219,41348
6057,3176,41353
6058,3395,41355
6059,15453,41356
6060,11826,41368
6061,2715,41371
6062,8566,41373
6063,13892,41374
6064,2382,41378
6065,8567,41380
6066,1360,41381
6067,15332,41383
6068,8568,41386
6069,267,41387
6070,11802,41392
6071,8569,41394
6072,8570,41395
6073,8571,41398
6074,8572,41400
6075,2397,41401
6076,13880,41402
6077,8573,41405
6078,15331,41407
6079,8574,41408
6080,6147,24673
6081,3332,24675
6082,5512,24676
6083,1196,24680
6084,1198,24682
6085,10089,24684
6086,4137,24685
6087,6150,24689
6088,10090,24691
6089,631,24692
6090,6149,24693
6091,6129,24694
6092,6148,24695
6093,10091,24696
6094,10092,24697
6095,10093,24698
6096,6151,24701
6097,10094,24702
6098,3999,24703
6099,6152,24707
6100,10095,24713
6101,4133,24714
6102,4000,24715
6103,6146,24717
6104,10096,24718
6105,1195,24721
6106,10097,24723
6107,6153,24724
6108,6136,24728
6109,6156,24733
6110,10098,24739
6111,90,24741
6112,4186,50334
6113,1124,50335
6114,13538,50339
6115,13539,50340
6116,3859,50341
6117,13540,50342
6118,13541,50345
6119,13542,50346
6120,13543,50347
6121,13544,50349
6122,13545,50351
6123,13546,50353
6124,13547,50356
6125,6475,50362
6126,13548,50363
6127,6002,50367
6128,13549,50368
6129,13550,50370
6130,13551,50371
6131,5938,50374
6132,5451,50376
6133,1131,50378
6134,13552,50379
6135,13553,50380
6136,13554,50381
6137,1077,50382
6138,13555,50384
6139,8242,50386
6140,13556,50388
6141,13557,50389
6142,13558,50391
6143,3166,50392
6144,5893,22910
6145,9909,22911
6146,9910,22914
6147,5892,22915
6148,5894,22920
6149,9911,22926
6150,5895,22929
6151,4111,22933
6152,3695,22937
6153,5896,22938
6154,5899,22941
6155,9912,22944
6156,9913,22945
6157,5902,22952
6158,9914,22957
6159,9915,22958
6160,5901,22960
6161,3688,22961
6162,5904,22966
6163,5830,22968
6164,9916,22970
6165,5900,22972
6166,9917,22975
6167,9918,22980
6168,9919,22983
6169,339,22984
6170,5906,22986
6171,5909,22987
6172,3689,22988
6173,9920,22990
6174,5905,22991
6175,5754,22993
6176,399,51046
6177,13805,51047
6178,13806,51049
6179,13807,51050
6180,13808,51051
6181,13809,51053
6182,13810,51054
6183,13811,51055
6184,4440,51059
6185,13812,51060
6186,13813,51062
6187,13814,51065
6188,13815,51068
6189,13816,51070
6190,13817,51072
6191,3448,51073
6192,13818,51074
6193,13819,51076
6194,2664,51080
6195,7352,51081
6196,13820,51085
6197,13821,51087
6198,13822,51090
6199,13823,51091
6200,4843,51092
6201,13824,51095
6202,13825,51096
6203,13826,51097
6204,13827,51100
6205,13828,51101
6206,13829,51103
6207,6586,51104
6208,3449,17046
6209,8121,17047
6210,5230,17048
6211,6582,17051
6212,3450,17054
6213,9358,17055
6214,6637,17067
6215,3451,17068
6216,6635,17070
6217,3452,17074
6218,3453,17075
6219,9415,17076
6220,3454,17077
6221,5626,17080
6222,99,17085
6223,8131,17086
6224,8009,17087
6225,8091,17088
6226,3455,17089
6227,9310,17090
6228,3456,17091
6229,3457,17094
6230,6580,17098
6231,172,17102
6232,528,17107
6233,8015,17110
6234,8136,17111
6235,7995,17112
6236,3458,17113
6237,5324,17115
6238,5610,17120
6239,8117,17122
6240,504,2034
6241,77,2035
6242,74,2037
6243,514,2038
6244,533,2058
6245,656,2078
6246,539,2118
6247,545,2152
6248,97,2166
6249,98,2167
6250,99,2200
6251,534,2217
6252,96,2229
6253,530,2230
6254,535,2240
6255,546,2262
6256,68,2266
6257,72,2273
6258,543,2301
6259,73,2331
6260,76,2382
6261,75,2412
6262,749,2483
6263,562,2554
6264,78,2582
6265,654,2601
6266,494,2616
6267,497,2625
6268,589,2626
6269,80,2632
6270,524,2638
6271,473,2661
6272,1978,25512
6273,10268,25513
6274,6264,25515
6275,13422,25516
6276,6265,25523
6277,15989,25526
6278,13404,25527
6279,36,25530
6280,10195,25531
6281,13405,25533
6282,6266,25535
6283,6267,25536
6284,6268,25537
6285,6269,25539
6286,6270,25541
6287,2341,25544
6288,6271,25547
6289,16127,25549
6290,3536,25550
6291,896,25551
6292,16129,25552
6293,15988,25553
6294,6272,25555
6295,6273,25556
6296,898,25558
6297,16058,25562
6298,358,25566
6299,16003,25573
6300,6274,25575
6301,2312,25577
6302,15999,25578
6303,6275,25583
6304,15756,26237
6305,4157,26240
6306,868,26242
6307,6371,26249
6308,6372,26251
6309,6373,26255
6310,15795,26258
6311,15796,26262
6312,3769,26263
6313,3776,26266
6314,10254,26267
6315,15800,26270
6316,6374,26273
6317,15751,26279
6318,6375,26280
6319,6376,26282
6320,16100,26283
6321,6377,26285
6322,6378,26287
6323,16084,26288
6324,6379,26290
6325,6380,26291
6326,6381,26295
6327,6382,26296
6328,6383,26298
6329,13309,26301
6330,3803,26304
6331,3857,26308
6332,16108,26314
6333,10260,26315
6334,3709,26317
6335,16088,26318
6336,15763,56191
6337,571,56193
6338,15764,56194
6339,15765,56195
6340,570,56196
6341,15766,56197
6342,878,56199
6343,15767,56200
6344,15768,56205
6345,15769,56207
6346,15770,56208
6347,15771,56209
6348,8396,56211
6349,15772,56214
6350,15773,56217
6351,15774,56218
6352,15775,56221
6353,6354,56222
6354,1172,56223
6355,15776,56224
6356,15777,56226
6357,15778,56229
6358,15779,56233
6359,15780,56234
6360,15781,56235
6361,15782,56236
6362,15783,56237
6363,15784,56239
6364,15785,56241
6365,15786,56242
6366,15787,56244
6367,15788,56248
6368,7620,12621
6369,6750,12626
6370,2608,12627
6371,2609,12628
6372,2610,12629
6373,5992,12635
6374,2611,12639
6375,7662,12645
6376,2612,12647
6377,7821,12648
6378,9340,12658
6379,4864,12659
6380,2613,12674
6381,6752,12677
6382,7659,12680
6383,7658,12682
6384,2614,12684
6385,6754,12690
6386,6761,12692
6387,209,12694
6388,7596,12697
6389,2615,12701
6390,2616,12706
6391,6759,12712
6392,146,12715
6393,7597,12718
6394,2617,12719
6395,7654,12723
6396,7655,12727
6397,6762,12728
6398,6010,12734
6399,413,12736
6400,13382,11043
6401,13373,11044
6402,4698,11053
6403,12043,11055
6404,4699,11062
6405,13438,11063
6406,13442,11065
6407,2006,11068
6408,10221,11069
6409,4700,11073
6410,4701,11074
6411,1969,11075
6412,9527,11076
6413,4702,11090
6414,4703,11094
6415,4704,11100
6416,9869,11102
6417,4705,11103
6418,4706,11105
6419,13376,11107
6420,4707,11108
6421,4708,11111
6422,4709,11118
6423,10222,11124
6424,4710,11125
6425,4711,11127
6426,1313,11132
6427,4712,11134
6428,1312,11144
6429,16051,11150
6430,17150,11153
6431,2315,11155
6432,17023,59584
6433,17025,59601
6434,17026,59604
6435,17030,59611
6436,17055,59615
6437,17032,59620
6438,17037,59626
6439,17039,59634
6440,4257,59637
6441,17057,59639
6442,17040,59643
6443,17059,59644
6444,17049,59651
6445,17050,59657
6446,17048,59658
6447,17046,59662
6448,17053,59674
6449,17054,59679
6450,17058,59687
6451,11,59690
6452,17061,59693
6453,17098,59706
6454,17063,59707
6455,17064,59712
6456,17074,59732
6457,17076,59733
6458,17084,59743
6459,17082,59752
6460,17083,59755
6461,2282,59763
6462,9492,59765
6463,17108,59777
6464,17106,34206
6465,17027,34215
6466,11065,34218
6467,13997,34219
6468,2500,34222
6469,7500,34224
6470,7501,34225
6471,13992,34227
6472,7502,34229
6473,17100,34231
6474,3338,34234
6475,2284,34235
6476,709,34240
6477,7503,34243
6478,4298,34244
6479,7504,34248
6480,11073,34250
6481,17096,34252
6482,11069,34254
6483,7505,34256
6484,17101,34259
6485,4288,34260
6486,711,34264
6487,7506,34266
6488,4290,34267
6489,2404,34272
6490,11072,34276
6491,32,34280
6492,17252,34283
6493,2139,34284
6494,7507,34285
6495,17251,34287
6496,1682,35880
6497,13003,35881
6498,4036,35882
6499,2968,35883
6500,7757,35886
6501,11324,35887
6502,7758,35890
6503,7759,35895
6504,7760,35899
6505,7761,35903
6506,3173,35905
6507,7762,35907
6508,7763,35909
6509,7764,35910
6510,3174,35911
6511,16932,35912
6512,3179,35913
6513,4053,35914
6514,7765,35915
6515,7766,35917
6516,16929,35918
6517,7767,35922
6518,13004,35923
6519,1678,35925
6520,7768,35927
6521,4047,35929
6522,16933,35931
6523,7769,35934
6524,7770,35937
6525,16936,35938
6526,16918,35944
6527,7771,35948
6528,2180,10095
6529,8720,10098
6530,2181,10102
6531,9058,10104
6532,4760,10105
6533,8527,10106
6534,2182,10111
6535,7274,10112
6536,9224,10118
6537,2183,10119
6538,2184,10120
6539,149,10121
6540,4886,10122
6541,5793,10130
6542,7586,10133
6543,8557,10134
6544,7264,10140
6545,7265,10142
6546,5808,10147
6547,2185,10148
6548,8558,10149
6549,64,10155
6550,7569,10160
6551,8779,10162
6552,4883,10167
6553,2186,10169
6554,6031,10173
6555,4787,10175
6556,2187,10176
6557,2188,10177
6558,5046,10179
6559,2189,10186
6560,1610,979
6561,1003,980
6562,970,984
6563,2189,986
6564,38,989
6565,971,993
6566,2198,994
6567,1606,998
6568,2215,1005
6569,2866,1013
6570,969,1014
6571,1631,1016
6572,1632,1022
6573,2203,1027
6574,1595,1030
6575,1596,1036
6576,2894,1037
6577,2897,1038
6578,1600,1041
6579,1603,1046
6580,4276,1054
6581,2870,1056
6582,1015,1059
6583,2820,1063
6584,2822,1065
6585,4262,1069
6586,2174,1070
6587,1007,1073
6588,1008,1074
6589,930,1078
6590,1009,1084
6591,929,1086
6592,2791,13680
6593,2792,13682
6594,305,13688
6595,2793,13694
6596,6760,13695
6597,9064,13697
6598,6888,13699
6599,6751,13702
6600,8738,13703
6601,2794,13704
6602,2795,13707
6603,9173,13708
6604,2796,13711
6605,391,13712
6606,8751,13715
6607,2797,13717
6608,2798,13719
6609,2799,13720
6610,2800,13721
6611,432,13722
6612,8744,13723
6613,6906,13725
6614,9127,13726
6615,2801,13729
6616,2802,13732
6617,406,13734
6618,9113,13737
6619,2803,13741
6620,9123,13743
6621,9117,13745
6622,2804,13746
6623,6908,13747
6624,1204,19573
6625,1215,19653
6626,2096,19674
6627,1408,19683
6628,9637,19693
6629,5480,19695
6630,5472,19698
6631,9638,19759
6632,1411,19763
6633,5481,19765
6634,9639,19774
6635,9640,19778
6636,2116,19843
6637,9641,19848
6638,9642,19965
6639,1406,20012
6640,5515,20027
6641,9643,20043
6642,9644,20053
6643,1899,20118
6644,4552,20130
6645,1199,20134
6646,9645,20145
6647,1190,20147
6648,9646,20184
6649,9647,20231
6650,5528,20261
6651,9648,20309
6652,9649,20314
6653,1525,20325
6654,9650,20375
6655,9651,20381
6656,6015,23733
6657,15129,23737
6658,6016,23738
6659,6017,23739
6660,6018,23741
6661,15225,23743
6662,2989,23744
6663,6019,23746
6664,161,23747
6665,6020,23749
6666,10003,23751
6667,6021,23754
6668,1476,23755
6669,1475,23758
6670,6022,23766
6671,15122,23773
6672,482,23775
6673,6023,23776
6674,6024,23777
6675,6025,23778
6676,6026,23779
6677,10006,23782
6678,126,23786
6679,14308,23787
6680,6027,23791
6681,14310,23792
6682,10007,23793
6683,1444,23794
6684,14924,23798
6685,14321,23800
6686,15050,23801
6687,2024,23803
6688,4486,45589
6689,12217,45590
6690,9168,45594
6691,1911,45598
6692,9169,45599
6693,9170,45603
6694,12448,45608
6695,3793,45610
6696,4488,45611
6697,9171,45612
6698,4487,45613
6699,12221,45614
6700,9172,45615
6701,9173,45618
6702,9174,45619
6703,12222,45620
6704,12223,45628
6705,9175,45629
6706,1803,45633
6707,14777,45634
6708,2788,45635
6709,12413,45637
6710,1781,45638
6711,12227,45640
6712,4323,45642
6713,12224,45643
6714,9176,45646
6715,15176,45647
6716,9177,45650
6717,9178,45651
6718,14685,45654
6719,2239,45657
6720,10965,33227
6721,3636,33229
6722,2245,33230
6723,7361,33231
6724,17311,33237
6725,10966,33238
6726,2236,33240
6727,7362,33243
6728,1948,33245
6729,10968,33247
6730,7363,33253
6731,2937,33257
6732,16604,33258
6733,1639,33260
6734,16607,33261
6735,7364,33264
6736,7365,33265
6737,7366,33269
6738,13112,33271
6739,7367,33272
6740,2979,33274
6741,7368,33276
6742,10971,33281
6743,2978,33282
6744,16609,33284
6745,7369,33287
6746,7370,33288
6747,3120,33293
6748,7371,33295
6749,13105,33296
6750,7372,33298
6751,7373,33302
6752,1623,1223
6753,3017,1224
6754,1691,1225
6755,3110,1226
6756,1692,1227
6757,1624,1228
6758,3031,1231
6759,1694,1232
6760,2145,1236
6761,2233,1238
6762,3045,1239
6763,2234,1240
6764,1665,1241
6765,39,1242
6766,3039,1245
6767,1667,1248
6768,3056,1249
6769,2238,1250
6770,2144,1252
6771,4311,1253
6772,2135,1254
6773,1658,1255
6774,2613,1256
6775,40,1259
6776,1660,1261
6777,3044,1262
6778,1668,1263
6779,1652,1266
6780,1644,1267
6781,4269,1268
6782,3067,1271
6783,2847,1272
6784,694,32153
6785,695,32209
6786,696,32368
6787,4266,32395
6788,697,32434
6789,698,32502
6790,699,32576
6791,4270,32615
6792,700,32671
6793,701,32687
6794,702,32752
6795,703,32840
6796,4274,32894
6797,4275,33003
6798,704,33070
6799,4279,33151
6800,705,33270
6801,4281,33290
6802,706,33470
6803,4517,33571
6804,4516,33710
6805,4514,33757
6806,707,33794
6807,708,33811
6808,4509,33995
6809,709,34036
6810,4294,34054
6811,710,34099
6812,711,34183
6813,4298,34211
6814,712,34332
6815,713,34415
6816,2631,12818
6817,6061,12819
6818,183,12821
6819,2632,12822
6820,291,12823
6821,4935,12826
6822,2633,12830
6823,2634,12840
6824,5696,12842
6825,6956,12845
6826,293,12847
6827,2635,12848
6828,2636,12852
6829,2637,12853
6830,2638,12854
6831,2639,12856
6832,4980,12859
6833,2640,12861
6834,2641,12864
6835,2642,12865
6836,2643,12866
6837,2644,12867
6838,2645,12869
6839,5027,12872
6840,2646,12876
6841,2647,12882
6842,2648,12885
6843,9317,12886
6844,2649,12887
6845,2650,12892
6846,2651,12895
6847,2652,12898
6848,3105,36014
6849,12952,36016
6850,17008,36021
6851,11260,36023
6852,11261,36027
6853,2963,36028
6854,4283,36031
6855,11262,36034
6856,2959,36036
6857,12936,36040
6858,7782,36041
6859,7783,36042
6860,3147,36043
6861,723,36045
6862,11263,36049
6863,11264,36052
6864,7784,36053
6865,17003,36059
6866,2964,36060
6867,7785,36062
6868,17001,36063
6869,11268,36064
6870,16998,36065
6871,3154,36069
6872,3015,36072
6873,16920,36074
6874,7786,36076
6875,12863,36077
6876,2988,36079
6877,7787,36081
6878,7788,36082
6879,7789,36085
6880,3685,18253
6881,9620,18255
6882,15162,18261
6883,5341,18269
6884,5342,18271
6885,5343,18274
6886,5344,18275
6887,13449,18276
6888,10364,18279
6889,9835,18283
6890,5345,18286
6891,9793,18291
6892,9733,18293
6893,5346,18295
6894,5347,18296
6895,5348,18297
6896,11661,18300
6897,11659,18302
6898,5349,18303
6899,5350,18305
6900,5351,18306
6901,865,18307
6902,10339,18308
6903,10351,18312
6904,5352,18314
6905,11666,18317
6906,11668,18319
6907,12959,18320
6908,9791,18323
6909,13698,18327
6910,5353,18328
6911,5354,18330
6912,9819,22036
6913,12738,22041
6914,3894,22042
6915,15004,22047
6916,5772,22049
6917,1427,22050
6918,5773,22052
6919,9823,22054
6920,3490,22056
6921,5774,22057
6922,13714,22059
6923,15432,22060
6924,12619,22061
6925,5775,22063
6926,15072,22065
6927,14998,22070
6928,5776,22071
6929,3352,22072
6930,3973,22074
6931,3469,22078
6932,5777,22079
6933,1424,22081
6934,5778,22084
6935,1378,22086
6936,15502,22088
6937,5779,22089
6938,3944,22090
6939,15500,22094
6940,15007,22096
6941,5780,22098
6942,5781,22099
6943,1426,22102
6944,7128,31592
6945,4680,31599
6946,516,31602
6947,7131,31605
6948,10804,31607
6949,7132,31609
6950,7130,31610
6951,2475,31611
6952,10805,31612
6953,7134,31617
6954,2474,31621
6955,10806,31626
6956,10807,31627
6957,7136,31629
6958,2298,31631
6959,3587,31633
6960,340,31637
6961,7129,31640
6962,7133,31641
6963,842,31646
6964,843,31650
6965,10808,31652
6966,10809,31653
6967,7139,31655
6968,6308,31657
6969,7140,31658
6970,2465,31661
6971,10810,31662
6972,4794,31663
6973,7142,31669
6974,4795,31670
6975,10811,31675
6976,178,5558
6977,3739,5559
6978,3520,5564
6979,3515,5565
6980,3414,5570
6981,3596,5576
6982,3418,5577
6983,3419,5579
6984,3648,5584
6985,3206,5585
6986,3626,5588
6987,3954,5595
6988,179,5596
6989,3578,5607
6990,180,5619
6991,3580,5622
6992,4453,5623
6993,181,5632
6994,4454,5639
6995,3614,5642
6996,182,5643
6997,2131,5650
6998,2611,5657
6999,1545,5659
7000,1536,5662
7001,1572,5669
7002,2595,5672
7003,1568,5673
7004,1569,5677
7005,1542,5678
7006,1530,5682
7007,1531,5687
7008,6045,9238
7009,2026,9239
7010,6922,9241
7011,2027,9243
7012,4649,9244
7013,2028,9245
7014,8570,9246
7015,2029,9248
7016,5851,9250
7017,2030,9251
7018,6872,9252
7019,266,9254
7020,8616,9258
7021,2031,9261
7022,8760,9263
7023,9170,9264
7024,8619,9265
7025,7857,9268
7026,8746,9269
7027,8917,9276
7028,2032,9277
7029,4731,9280
7030,4998,9282
7031,8864,9284
7032,2033,9286
7033,6039,9287
7034,6108,9292
7035,5231,9293
7036,2034,9295
7037,8511,9296
7038,4704,9297
7039,5357,9302
7040,6543,27466
7041,6544,27468
7042,4030,27470
7043,1089,27477
7044,1980,27479
7045,1088,27481
7046,10378,27484
7047,77,27488
7048,6545,27491
7049,6546,27493
7050,3961,27494
7051,13507,27496
7052,3853,27498
7053,3386,27501
7054,660,27504
7055,13506,27506
7056,10379,27507
7057,6547,27510
7058,4173,27511
7059,13664,27513
7060,6548,27514
7061,6549,27516
7062,1090,27518
7063,3412,27521
7064,3360,27525
7065,1091,27529
7066,661,27531
7067,1092,27536
7068,6550,27538
7069,3697,27545
7070,13629,27546
7071,3696,27548
7072,12130,7754
7073,11239,7772
7074,12842,7778
7075,11189,7783
7076,10564,7792
7077,11227,7797
7078,9807,7820
7079,10797,7821
7080,11102,7823
7081,11101,7829
7082,10149,7844
7083,4591,7849
7084,13050,7859
7085,12150,7872
7086,9660,7899
7087,10895,7919
7088,9689,7948
7089,10432,7952
7090,9925,7963
7091,12312,7974
7092,13401,7975
7093,9513,7976
7094,9926,7995
7095,11872,7996
7096,11846,7999
7097,10864,8006
7098,12634,8007
7099,10930,8020
7100,9625,8025
7101,13020,8033
7102,9930,8034
7103,9890,8049
7104,6300,25722
7105,4158,25728
7106,6301,25731
7107,6302,25733
7108,16139,25735
7109,907,25737
7110,16118,25738
7111,10209,25740
7112,3836,25744
7113,6303,25746
7114,16122,25747
7115,905,25750
7116,10220,25752
7117,6304,25753
7118,16115,25756
7119,4159,25759
7120,16113,25761
7121,15968,25763
7122,351,25765
7123,6305,25766
7124,16008,25768
7125,6306,25773
7126,6307,25776
7127,876,25777
7128,10212,25779
7129,6308,25783
7130,16016,25784
7131,3610,25785
7132,2480,25787
7133,829,25789
7134,2376,25791
7135,10211,25792
7136,3164,36320
7137,16939,36323
7138,11285,36328
7139,7834,36332
7140,7835,36333
7141,2812,36335
7142,7836,36336
7143,11340,36341
7144,7837,36347
7145,11287,36348
7146,16857,36350
7147,7838,36353
7148,7839,36355
7149,3062,36356
7150,7840,36357
7151,7841,36360
7152,11290,36362
7153,3796,36365
7154,7842,36366
7155,16910,36368
7156,7843,36369
7157,3074,36372
7158,13329,36373
7159,16912,36377
7160,7844,36378
7161,13328,36380
7162,1643,36384
7163,3065,36388
7164,7845,36393
7165,7846,36396
7166,1994,36399
7167,2818,36400
7168,3649,17914
7169,3806,17917
7170,553,17920
7171,4442,17923
7172,554,17935
7173,3643,17942
7174,3654,17953
7175,4157,17967
7176,3660,17969
7177,555,17992
7178,3652,17999
7179,3823,18006
7180,3666,18009
7181,556,18031
7182,557,18077
7183,558,18083
7184,3777,18105
7185,4347,18134
7186,4118,18190
7187,559,18196
7188,3983,18201
7189,3816,18210
7190,4075,18217
7191,3779,18236
7192,560,18240
7193,4336,18254
7194,4104,18256
7195,561,18284
7196,3781,18310
7197,3759,18311
7198,3770,18313
7199,562,18316
7200,4434,41929
7201,8650,41932
7202,217,41957
7203,770,41973
7204,394,41993
7205,4435,42039
7206,8686,42041
7207,8674,42077
7208,772,42093
7209,4436,42109
7210,8680,42115
7211,8679,42117
7212,771,42118
7213,4437,42141
7214,4438,42142
7215,4439,42173
7216,468,42182
7217,773,42198
7218,4440,42223
7219,8717,42248
7220,4441,42250
7221,4442,42272
7222,8701,42277
7223,4443,42287
7224,775,42320
7225,9320,42381
7226,776,42504
7227,9416,42547
7228,457,42549
7229,4444,42553
7230,777,42613
7231,4445,42645
7232,14277,52286
7233,14278,52289
7234,14279,52295
7235,5942,52296
7236,5946,52298
7237,14280,52299
7238,14281,52300
7239,14282,52302
7240,14283,52304
7241,5947,52305
7242,14284,52307
7243,776,52308
7244,14285,52310
7245,14286,52312
7246,14287,52315
7247,14288,52317
7248,14289,52318
7249,9442,52319
7250,1778,52320
7251,14290,52322
7252,14291,52324
7253,14292,52327
7254,8715,52328
7255,4129,52330
7256,6047,52331
7257,8512,52332
7258,14293,52333
7259,14294,52334
7260,14295,52335
7261,14296,52339
7262,14297,52343
7263,763,52344
7264,8708,42542
7265,11911,42556
7266,11912,42562
7267,8741,42563
7268,8742,42564
7269,11913,42571
7270,8701,42574
7271,8745,42576
7272,11914,42579
7273,2567,42582
7274,8744,42583
7275,1773,42585
7276,8739,42589
7277,11915,42590
7278,8740,42592
7279,2796,42601
7280,8748,42604
7281,11916,42605
7282,1771,42607
7283,1770,42609
7284,11917,42610
7285,8738,42611
7286,8749,42614
7287,2231,42616
7288,11918,42617
7289,8747,42621
7290,11919,42624
7291,3021,42625
7292,8746,42626
7293,305,42628
7294,3397,42629
7295,4859,42630
7296,5020,42276
7297,11890,42282
7298,1774,42283
7299,8700,42286
7300,8699,42294
7301,8702,42297
7302,441,42298
7303,3019,42300
7304,283,42301
7305,1428,42307
7306,8704,42310
7307,11891,42311
7308,11892,42313
7309,11893,42316
7310,2010,42319
7311,8709,42330
7312,11894,42334
7313,5014,42335
7314,11895,42341
7315,8710,42344
7316,11896,42347
7317,8712,42349
7318,8713,42355
7319,5013,42356
7320,3152,42357
7321,11897,42361
7322,8553,42362
7323,1435,42364
7324,2078,42365
7325,8714,42367
7326,1724,42374
7327,2943,42377
7328,13910,21341
7329,14129,21342
7330,5684,21343
7331,5685,21344
7332,9753,21347
7333,2553,21349
7334,5686,21351
7335,5687,21352
7336,9776,21353
7337,5688,21356
7338,4085,21357
7339,5689,21358
7340,2902,21360
7341,5690,21361
7342,5691,21362
7343,9757,21364
7344,15145,21365
7345,3461,21366
7346,3460,21367
7347,5692,21369
7348,5693,21371
7349,5694,21372
7350,5695,21373
7351,12479,21374
7352,13922,21376
7353,417,21379
7354,12383,21380
7355,5696,21382
7356,5697,21383
7357,3451,21387
7358,9748,21388
7359,9746,21389
7360,12172,45175
7361,1853,45179
7362,3096,45180
7363,1416,45185
7364,256,45189
7365,9104,45190
7366,12173,45191
7367,9109,45201
7368,9111,45202
7369,12174,45204
7370,12175,45205
7371,9110,45208
7372,2801,45209
7373,9114,45212
7374,12176,45214
7375,9115,45219
7376,1807,45222
7377,9117,45231
7378,1921,45232
7379,2802,45234
7380,1917,45237
7381,9119,45240
7382,1809,45244
7383,312,45245
7384,5444,45251
7385,9118,45252
7386,9121,45253
7387,4932,45255
7388,2551,45257
7389,9122,45258
7390,9116,45260
7391,9123,45261
7392,5113,15549
7393,1249,15550
7394,16264,15560
7395,14883,15562
7396,5114,15564
7397,14909,15566
7398,12166,15570
7399,5115,15571
7400,5116,15575
7401,5117,15578
7402,5118,15585
7403,5119,15586
7404,1132,15589
7405,10290,15596
7406,86,15597
7407,1252,15602
7408,11366,15604
7409,5120,15606
7410,1119,15608
7411,10188,15610
7412,9585,15614
7413,10179,15618
7414,13956,15622
7415,16592,15633
7416,13143,15634
7417,10138,15637
7418,16515,15643
7419,5121,15646
7420,16516,15650
7421,1443,15654
7422,1446,15666
7423,1487,15667
7424,9358,46776
7425,1758,46778
7426,2965,46785
7427,12340,46786
7428,1859,46788
7429,12343,46789
7430,9359,46790
7431,12341,46792
7432,9360,46793
7433,9361,46796
7434,9362,46799
7435,9363,46802
7436,15220,46805
7437,1510,46806
7438,12346,46813
7439,2608,46814
7440,9364,46815
7441,1939,46817
7442,1756,46819
7443,9365,46822
7444,12407,46826
7445,15251,46831
7446,1822,46834
7447,15273,46835
7448,14049,46837
7449,9366,46838
7450,15259,46843
7451,9367,46844
7452,2593,46846
7453,1922,46847
7454,1823,46848
7455,9368,46853
7456,7607,8003
7457,5938,8015
7458,7453,8016
7459,6240,8018
7460,4964,8021
7461,4594,8027
7462,1869,8029
7463,6227,8030
7464,9191,8035
7465,7778,8037
7466,5017,8040
7467,5152,8047
7468,1870,8048
7469,7181,8054
7470,8716,8060
7471,5881,8061
7472,1871,8062
7473,9187,8067
7474,5639,8075
7475,1872,8080
7476,7739,8085
7477,1873,8086
7478,7737,8088
7479,7241,8090
7480,5688,8093
7481,4681,8099
7482,5171,8103
7483,1874,8104
7484,8690,8110
7485,1875,8111
7486,6690,8114
7487,1876,8116
7488,10122,24922
7489,6139,24923
7490,6174,24924
7491,10123,24925
7492,10124,24928
7493,10125,24934
7494,6179,24935
7495,10126,24942
7496,6185,24945
7497,1208,24949
7498,6180,24952
7499,6183,24953
7500,6184,24954
7501,10127,24955
7502,6177,24956
7503,2108,24971
7504,1205,24973
7505,10128,24975
7506,3454,24981
7507,1206,24982
7508,10129,24983
7509,10130,24984
7510,6182,24985
7511,10131,24986
7512,6190,24987
7513,6143,24989
7514,10132,24990
7515,6192,24993
7516,1251,24999
7517,86,25000
7518,10133,25005
7519,1252,25008
7520,2627,35657
7521,7720,35658
7522,2572,35661
7523,2630,35664
7524,14475,35667
7525,13162,35669
7526,418,35670
7527,7721,35671
7528,349,35674
7529,2631,35679
7530,7722,35682
7531,2628,35684
7532,14533,35688
7533,7723,35690
7534,397,35691
7535,7724,35693
7536,7725,35698
7537,14463,35699
7538,7726,35701
7539,11226,35703
7540,1559,35706
7541,7727,35709
7542,7728,35711
7543,7729,35715
7544,7730,35720
7545,14460,35722
7546,7731,35724
7547,14532,35725
