0,245
1,63
2,726
3,693
4,2041
5,88
6,601
7,667
8,1903
9,88
10,572
11,667
12,495
13,811
14,301
15,693
16,441
17,409
18,442
19,1966
20,637
21,373
22,63
23,197
24,580
25,15
26,402
27,441
28,416
29,1966
30,198
31,646
32,821
33,1438
34,561
35,1064
36,198
37,373
38,420
39,416
40,88
41,553
42,197
43,2041
44,637
45,2070
46,21
47,753
48,452
49,382
50,730
51,709
52,98
53,1903
54,382
55,161
56,580
57,298
58,553
59,745
60,586
61,117
62,1903
63,396
64,1165
65,601
66,365
67,753
68,534
69,693
70,352
71,245
72,21
73,1606
74,298
75,646
76,425
77,659
78,28
79,601
80,642
81,693
82,21
83,693
84,98
85,803
86,88
87,198
88,286
89,685
90,542
91,584
92,198
93,673
94,452
95,644
96,516
97,601
98,646
99,411
100,1370
101,408
102,295
103,270
104,676
105,532
106,371
107,298
108,638
109,601
110,298
111,548
112,373
113,295
114,1573
115,552
116,1162
117,477
118,477
119,654
120,637
121,301
122,738
123,553
124,1342
125,638
126,1342
127,339
128,391
129,301
130,552
131,743
132,161
133,580
134,224
135,382
136,411
137,646
138,753
139,198
140,1628
141,1345
142,1966
143,601
144,637
145,382
146,646
147,1625
148,286
149,290
150,1881
151,1749
152,630
153,1749
154,89
155,371
156,1749
157,63
158,601
159,198
160,647
161,161
162,56
163,382
164,601
165,685
166,642
167,285
168,693
169,15
170,1165
171,352
172,62
173,20
174,441
175,532
176,1749
177,88
178,630
179,1345
180,580
181,495
182,15
183,202
184,753
185,402
186,745
187,328
188,648
189,441
190,745
191,85
192,1162
193,542
194,298
195,301
196,62
197,1345
198,596
199,285
200,391
201,391
202,15
203,1162
204,516
205,373
206,779
207,9
208,579
209,584
210,606
211,1165
212,638
213,751
214,1342
215,408
216,391
217,667
218,601
219,698
220,416
221,441
222,1342
223,745
224,286
225,202
226,20
227,198
228,1064
229,587
230,328
231,698
232,779
233,285
234,642
235,1819
236,298
237,596
238,642
239,779
240,745
241,20
242,224
243,373
244,1837
245,224
246,574
247,821
248,198
249,1903
250,295
251,441
252,381
253,455
254,161
255,1749
256,1330
257,580
258,586
259,420
260,378
261,637
262,667
263,198
264,295
265,161
266,698
267,1882
268,352
269,637
270,391
271,301
272,286
273,676
274,627
275,726
276,378
277,726
278,1342
279,1496
280,88
281,566
282,198
283,1749
284,1345
285,402
286,295
287,693
288,88
289,301
290,298
291,499
292,339
293,9
294,339
295,475
296,1966
297,89
298,1370
299,685
300,20
301,436
302,745
303,365
304,89
305,295
306,644
307,441
308,516
309,539
310,742
311,161
312,698
313,638
314,224
315,224
316,647
317,198
318,302
319,647
320,693
321,408
322,20
323,477
324,198
325,1162
326,553
327,20
328,411
329,637
330,63
331,753
332,693
333,441
334,637
335,642
336,572
337,1749
338,20
339,371
340,499
341,1625
342,224
343,381
344,161
345,1330
346,516
347,698
348,648
349,572
350,803
351,409
352,197
353,88
354,381
355,1064
356,286
357,409
358,556
359,21
360,286
361,270
362,627
363,21
364,88
365,20
366,700
367,433
368,516
369,637
370,1625
371,382
372,391
373,475
374,1573
375,1756
376,642
377,85
378,88
379,286
380,676
381,456
382,88
383,1837
384,224
385,556
386,161
387,698
388,516
389,198
390,1345
391,637
392,1342
393,28
394,1342
395,365
396,2080
397,419
398,2094
399,644
400,1064
401,644
402,295
403,580
404,1606
405,688
406,197
407,688
408,698
409,373
410,161
411,88
412,382
413,698
414,699
415,475
416,416
417,28
418,743
419,62
420,161
421,553
422,661
423,28
424,2070
425,295
426,402
427,738
428,21
429,661
430,88
431,161
432,1756
433,693
434,339
435,647
436,396
437,441
438,1628
439,539
440,601
441,637
442,637
443,523
444,382
445,420
446,381
447,245
448,63
449,580
450,674
451,270
452,301
453,539
454,21
455,20
456,566
457,328
458,596
459,1345
460,286
461,1756
462,1573
463,1064
464,580
465,198
466,21
467,286
468,98
469,499
470,646
471,373
472,619
473,601
474,20
475,712
476,657
477,1756
478,301
479,198
480,566
481,1756
482,409
483,637
484,700
485,539
486,548
487,21
488,373
489,506
490,601
491,161
492,654
493,516
494,1342
495,580
496,552
497,298
498,726
499,382
500,495
501,63
502,20
503,298
504,1064
505,637
506,1064
507,391
508,373
509,63
510,499
511,88
512,245
513,751
514,587
515,117
516,646
517,630
518,499
519,165
520,693
521,0
522,89
523,821
524,606
525,383
526,1903
527,409
528,88
529,693
530,1370
531,9
532,753
533,730
534,650
535,301
536,499
537,726
538,89
539,572
540,88
541,637
542,477
543,224
544,637
545,391
546,9
547,436
548,441
549,738
550,638
551,667
552,584
553,328
554,2080
555,654
556,202
557,63
558,88
559,676
560,1330
561,298
562,745
563,1035
564,661
565,21
566,298
567,477
568,396
569,1181
570,1064
571,416
572,245
573,516
574,382
575,1370
576,198
577,743
578,1606
579,391
580,409
581,1606
582,709
583,700
584,637
585,301
586,542
587,161
588,644
589,436
590,539
591,751
592,475
593,63
594,574
595,21
596,646
597,382
598,198
599,456
600,21
601,516
602,700
603,1165
604,88
605,378
606,198
607,746
608,642
609,425
610,1606
611,2041
612,88
613,420
614,117
615,646
616,1882
617,381
618,654
619,499
620,1064
621,1756
622,416
623,637
624,409
625,286
626,1496
627,821
628,499
629,619
630,693
631,1625
632,161
633,742
634,1151
635,661
636,88
637,745
638,1756
639,642
640,654
641,1625
642,745
643,1151
644,352
645,298
646,1819
647,601
648,693
649,1625
650,637
651,1573
652,89
653,644
654,637
655,606
656,286
657,1438
658,1330
659,548
660,88
661,580
662,298
663,298
664,627
665,646
666,553
667,650
668,1756
669,495
670,402
671,285
672,730
673,20
674,301
675,409
676,699
677,743
678,400
679,561
680,391
681,98
682,730
683,676
684,20
685,371
686,202
687,328
688,302
689,677
690,674
691,98
692,523
693,391
694,499
695,725
696,661
697,382
698,56
699,654
700,698
701,88
702,654
703,117
704,753
705,654
706,637
707,1881
708,646
709,301
710,21
711,619
712,698
713,382
714,224
715,409
716,1345
717,433
718,28
719,21
720,646
721,561
722,21
723,1837
724,21
725,2041
726,637
727,411
728,677
729,561
730,88
731,402
732,1749
733,646
734,661
735,1162
736,638
737,1162
738,402
739,499
740,28
741,197
742,709
743,552
744,698
745,62
746,1181
747,442
748,20
749,302
750,1966
751,425
752,637
753,419
754,98
755,381
756,391
757,580
758,286
759,1330
760,56
761,746
762,383
763,371
764,698
765,88
766,637
767,295
768,85
769,677
770,384
771,147
772,9
773,328
774,495
775,516
776,1073
777,646
778,779
779,85
780,646
781,553
782,98
783,442
784,724
785,637
786,523
787,730
788,301
789,556
790,499
791,2080
792,391
793,1438
794,88
795,745
796,365
797,1625
798,642
799,654
800,698
801,198
802,648
803,88
804,383
805,548
806,561
807,642
808,742
809,465
810,298
811,1606
812,475
813,1370
814,627
815,523
816,516
817,20
818,202
819,1165
820,381
821,698
822,674
823,62
824,416
825,572
826,2080
827,420
828,425
829,286
830,574
831,402
832,698
833,117
834,452
835,62
836,202
837,298
838,117
839,301
840,301
841,584
842,698
843,646
844,1035
845,161
846,659
847,1749
848,661
849,642
850,161
851,667
852,779
853,420
854,821
855,539
856,198
857,654
858,553
859,1877
860,2080
861,1496
862,1496
863,339
864,285
865,572
866,654
867,202
868,433
869,506
870,1756
871,371
872,561
873,161
874,745
875,539
876,301
877,751
878,224
879,1162
880,378
881,688
882,402
883,499
884,638
885,441
886,647
887,20
888,693
889,730
890,286
891,561
892,579
893,638
894,574
895,224
896,365
897,88
898,62
899,676
900,420
901,391
902,751
903,416
904,1064
905,1165
906,197
907,245
908,475
909,698
910,1837
911,700
912,416
913,381
914,1064
915,88
916,625
917,224
918,477
919,659
920,382
921,630
922,1370
923,709
924,382
925,224
926,646
927,298
928,1073
929,698
930,1073
931,730
932,436
933,198
934,688
935,89
936,751
937,730
938,1151
939,298
940,198
941,378
942,301
943,9
944,28
945,584
946,286
947,2080
948,373
949,475
950,584
951,516
952,416
953,382
954,532
955,224
956,654
957,506
958,452
959,198
960,408
961,1073
962,751
963,1370
964,378
965,20
966,1342
967,455
968,20
969,15
970,646
971,198
972,751
973,74
974,161
975,373
976,15
977,1628
978,677
979,596
980,298
981,117
982,1902
983,646
984,580
985,224
986,117
987,382
988,580
989,441
990,552
991,1064
992,1749
993,1064
994,646
995,285
996,700
997,1606
998,730
999,441
1000,286
1001,745
1002,9
1003,698
1004,661
1005,198
1006,391
1007,20
1008,1573
1009,1606
1010,552
1011,198
1012,286
1013,654
1014,654
1015,499
1016,2094
1017,98
1018,667
1019,301
1020,654
1021,495
1022,381
1023,561
1024,1073
1025,416
1026,301
1027,382
1028,637
1029,1895
1030,89
1031,646
1032,1966
1033,745
1034,674
1035,298
1036,88
1037,452
1038,648
1039,298
1040,1181
1041,753
1042,1606
1043,245
1044,661
1045,566
1046,98
1047,245
1048,499
1049,161
1050,637
1051,475
1052,667
1053,1625
1054,20
1055,420
1056,709
1057,224
1058,499
1059,673
1060,698
1061,1330
1062,441
1063,1345
1064,373
1065,667
1066,384
1067,328
1068,391
1069,301
1070,667
1071,20
1072,506
1073,674
1074,373
1075,224
1076,455
1077,1606
1078,285
1079,2080
1080,88
1081,161
1082,596
1083,699
1084,676
1085,647
1086,1625
1087,698
1088,712
1089,677
1090,506
1091,301
1092,1342
1093,572
1094,646
1095,1345
1096,88
1097,285
1098,373
1099,245
1100,499
1101,384
1102,285
1103,147
1104,587
1105,580
1106,1881
1107,642
1108,572
1109,339
1110,1181
1111,753
1112,381
1113,285
1114,367
1115,63
1116,1345
1117,730
1118,391
1119,20
1120,391
1121,750
1122,441
1123,516
1124,402
1125,601
1126,1628
1127,1837
1128,574
1129,661
1130,298
1131,1496
1132,245
1133,441
1134,420
1135,667
1136,452
1137,286
1138,601
1139,21
1140,275
1141,637
1142,1342
1143,295
1144,677
1145,542
1146,420
1147,552
1148,477
1149,63
1150,738
1151,642
1152,2080
1153,56
1154,1749
1155,676
1156,20
1157,245
1158,566
1159,674
1160,56
1161,637
1162,301
1163,98
1164,637
1165,433
1166,88
1167,245
1168,28
1169,224
1170,745
1171,298
1172,382
1173,1073
1174,1625
1175,391
1176,98
1177,20
1178,21
1179,298
1180,378
1181,1165
1182,1645
1183,743
1184,89
1185,1345
1186,391
1187,295
1188,436
1189,638
1190,685
1191,396
1192,753
1193,301
1194,270
1195,286
1196,495
1197,584
1198,724
1199,532
1200,88
1201,677
1202,286
1203,698
1204,89
1205,642
1206,627
1207,726
1208,661
1209,539
1210,637
1211,572
1212,499
1213,738
1214,596
1215,21
1216,295
1217,202
1218,667
1219,1064
1220,441
1221,1749
1222,685
1223,298
1224,383
1225,295
1226,270
1227,580
1228,1370
1229,726
1230,21
1231,1064
1232,409
1233,433
1234,587
1235,539
1236,667
1237,779
1238,1561
1239,821
1240,738
1241,637
1242,659
1243,1181
1244,85
1245,117
1246,21
1247,1568
1248,441
1249,98
1250,286
1251,751
1252,409
1253,646
1254,685
1255,441
1256,441
1257,441
1258,436
1259,700
1260,74
1261,627
1262,161
1263,1561
1264,371
1265,378
1266,88
1267,475
1268,381
1269,1165
1270,455
1271,301
1272,596
1273,98
1274,579
1275,198
1276,1162
1277,1370
1278,574
1279,698
1280,630
1281,328
1282,657
1283,28
1284,295
1285,198
1286,272
1287,245
1288,197
1289,556
1290,411
1291,452
1292,416
1293,619
1294,202
1295,161
1296,74
1297,642
1298,224
1299,295
1300,693
1301,700
1302,1966
1303,654
1304,382
1305,402
1306,637
1307,1035
1308,285
1309,523
1310,539
1311,637
1312,693
1313,698
1314,698
1315,676
1316,198
1317,561
1318,745
1319,751
1320,301
1321,638
1322,637
1323,378
1324,1628
1325,21
1326,698
1327,382
1328,1165
1329,1342
1330,20
1331,654
1332,1438
1333,275
1334,1345
1335,1625
1336,753
1337,371
1338,285
1339,295
1340,556
1341,373
1342,245
1343,411
1344,391
1345,647
1346,328
1347,391
1348,1749
1349,272
1350,580
1351,365
1352,1756
1353,161
1354,743
1355,553
1356,745
1357,420
1358,637
1359,698
1360,495
1361,85
1362,709
1363,1561
1364,700
1365,20
1366,442
1367,452
1368,637
1369,495
1370,659
1371,751
1372,1165
1373,648
1374,516
1375,416
1376,596
1377,391
1378,1628
1379,751
1380,751
1381,295
1382,391
1383,693
1384,365
1385,1162
1386,539
1387,553
1388,302
1389,1625
1390,637
1391,365
1392,352
1393,698
1394,1625
1395,667
1396,638
1397,596
1398,371
1399,753
1400,373
1401,328
1402,20
1403,661
1404,625
1405,416
1406,161
1407,197
1408,21
1409,574
1410,161
1411,553
1412,416
1413,245
1414,646
1415,328
1416,117
1417,1756
1418,693
1419,574
1420,566
1421,202
1422,9
1423,328
1424,667
1425,580
1426,726
1427,654
1428,15
1429,198
1430,224
1431,391
1432,552
1433,661
1434,1330
1435,391
1436,98
1437,98
1438,384
1439,117
1440,724
1441,475
1442,1342
1443,286
1444,1162
1445,1966
1446,548
1447,586
1448,1749
1449,477
1450,646
1451,396
1452,637
1453,738
1454,378
1455,499
1456,499
1457,637
1458,661
1459,745
1460,698
1461,98
1462,779
1463,726
1464,516
1465,647
1466,301
1467,161
1468,572
1469,676
1470,286
1471,161
1472,638
1473,224
1474,693
1475,596
1476,20
1477,1966
1478,1628
1479,272
1480,20
1481,286
1482,9
1483,396
1484,1073
1485,667
1486,391
1487,1064
1488,745
1489,391
1490,753
1491,352
1492,245
1493,475
1494,698
1495,516
1496,2094
1497,301
1498,197
1499,28
1500,286
1501,553
1502,725
1503,20
1504,661
1505,452
1506,224
1507,477
1508,661
1509,63
1510,302
1511,811
1512,441
1513,416
1514,1881
1515,416
1516,572
1517,667
1518,1241
1519,452
1520,285
1521,373
1522,365
1523,627
1524,286
1525,298
1526,1749
1527,295
1528,161
1529,441
1530,1162
1531,630
1532,580
1533,1606
1534,726
1535,416
1536,539
1537,1756
1538,21
1539,391
1540,495
1541,693
1542,596
1543,198
1544,1165
1545,63
1546,1342
1547,803
1548,286
1549,693
1550,301
1551,302
1552,811
1553,433
1554,1749
1555,637
1556,542
1557,654
1558,441
1559,646
1560,301
1561,654
1562,245
1563,455
1564,724
1565,88
1566,56
1567,698
1568,586
1569,382
1570,753
1571,523
1572,98
1573,642
1574,667
1575,753
1576,1370
1577,224
1578,753
1579,302
1580,433
1581,286
1582,685
1583,659
1584,661
1585,455
1586,286
1587,198
1588,20
1589,62
1590,642
1591,20
1592,245
1593,456
1594,382
1595,63
1596,295
1597,197
1598,730
1599,580
1600,161
1601,584
1602,456
1603,420
1604,673
1605,647
1606,506
1607,147
1608,1370
1609,441
1610,9
1611,391
1612,286
1613,712
1614,693
1615,580
1616,272
1617,1438
1618,499
1619,677
1620,224
1621,477
1622,63
1623,499
1624,365
1625,373
1626,295
1627,516
1628,382
1629,637
1630,693
1631,1902
1632,685
1633,647
1634,821
1635,690
1636,441
1637,1749
1638,391
1639,587
1640,2070
1641,2080
1642,1606
1643,495
1644,9
1645,1496
1646,1966
1647,738
1648,579
1649,738
1650,661
1651,409
1652,659
1653,391
1654,9
1655,644
1656,270
1657,28
1658,646
1659,712
1660,420
1661,654
1662,382
1663,553
1664,371
1665,56
1666,1573
1667,779
1668,637
1669,685
1670,85
1671,743
1672,654
1673,647
1674,1606
1675,9
1676,661
1677,753
1678,1625
1679,693
1680,89
1681,619
1682,654
1683,674
1684,1882
1685,198
1686,642
1687,698
1688,1345
1689,1756
1690,1165
1691,566
1692,726
1693,9
1694,667
1695,2080
1696,88
1697,409
1698,298
1699,402
1700,1625
1701,117
1702,742
1703,382
1704,821
1705,689
1706,85
1707,654
1708,202
1709,420
1710,98
1711,700
1712,272
1713,661
1714,436
1715,1064
1716,619
1717,534
1718,475
1719,85
1720,409
1721,224
1722,416
1723,20
1724,646
1725,751
1726,88
1727,646
1728,659
1729,20
1730,295
1731,245
1732,15
1733,1606
1734,286
1735,63
1736,456
1737,1561
1738,301
1739,2070
1740,2080
1741,647
1742,601
1743,542
1744,286
1745,630
1746,433
1747,638
1748,495
1749,224
1750,1966
1751,477
1752,285
1753,391
1754,699
1755,20
1756,21
1757,506
1758,661
1759,425
1760,382
1761,371
1762,1496
1763,21
1764,738
1765,596
1766,436
1767,382
1768,667
1769,117
1770,286
1771,197
1772,147
1773,2080
1774,286
1775,726
1776,408
1777,556
1778,630
1779,821
1780,28
1781,506
1782,425
1783,298
1784,667
1785,2070
1786,661
1787,654
1788,88
1789,648
1790,286
1791,499
1792,561
1793,295
1794,2080
1795,751
1796,596
1797,2080
1798,373
1799,709
1800,224
1801,1165
1802,726
1803,382
1804,572
1805,411
1806,74
1807,21
1808,584
1809,98
1810,198
1811,373
1812,601
1813,499
1814,2080
1815,1342
1816,1035
1817,730
1818,661
1819,452
1820,1625
1821,396
1822,298
1823,516
1824,20
1825,659
1826,580
1827,301
1828,301
1829,161
1830,1496
1831,596
1832,667
1833,516
1834,441
1835,1625
1836,302
1837,382
1838,396
1839,88
1840,15
1841,700
1842,499
1843,298
1844,452
1845,198
1846,420
1847,539
1848,298
1849,646
1850,654
1851,21
1852,1882
1853,743
1854,553
1855,391
1856,475
1857,556
1858,802
1859,539
1860,245
1861,553
1862,1882
1863,630
1864,202
1865,339
1866,15
1867,285
1868,286
1869,365
1870,685
1871,667
1872,1345
1873,302
1874,553
1875,365
1876,566
1877,637
1878,743
1879,553
1880,619
1881,1342
1882,477
1883,753
1884,301
1885,286
1886,441
1887,1064
1888,654
1889,117
1890,2070
1891,572
1892,117
1893,644
1894,637
1895,408
1896,646
1897,667
1898,20
1899,698
1900,198
1901,1162
1902,1241
1903,580
1904,1370
1905,378
1906,382
1907,667
1908,661
1909,1370
1910,2059
1911,637
1912,1625
1913,654
1914,642
1915,1165
1916,391
1917,637
1918,378
1919,409
1920,674
1921,753
1922,2080
1923,117
1924,587
1925,637
1926,20
1927,198
1928,378
1929,499
1930,654
1931,441
1932,667
1933,1756
1934,286
1935,63
1936,1345
1937,285
1938,1438
1939,28
1940,552
1941,542
1942,730
1943,523
1944,642
1945,548
1946,117
1947,365
1948,88
1949,20
1950,654
1951,9
1952,295
1953,601
1954,245
1955,20
1956,1345
1957,384
1958,98
1959,499
1960,751
1961,642
1962,475
1963,712
1964,667
1965,699
1966,630
1967,561
1968,580
1969,295
1970,455
1971,753
1972,147
1973,224
1974,542
1975,436
1976,295
1977,198
1978,391
1979,63
1980,495
1981,1073
1982,298
1983,654
1984,661
1985,420
1986,391
1987,556
1988,391
1989,738
1990,637
1991,373
1992,21
1993,642
1994,391
1995,198
1996,409
1997,667
1998,647
1999,88
2000,400
2001,198
2002,693
2003,373
2004,161
2005,391
2006,730
2007,584
2008,712
2009,416
2010,416
2011,606
2012,811
2013,2070
2014,674
2015,295
2016,396
2017,452
2018,1837
2019,821
2020,433
2021,302
2022,475
2023,1370
2024,147
2025,619
2026,384
2027,751
2028,161
2029,373
2030,698
2031,753
2032,596
2033,566
2034,298
2035,725
2036,63
2037,1064
2038,409
2039,574
2040,88
2041,416
2042,1165
2043,572
2044,383
2045,1756
2046,98
2047,1625
2048,677
2049,455
2050,1345
2051,198
2052,745
2053,9
2054,161
2055,161
2056,416
2057,1837
2058,98
2059,561
2060,648
2061,391
2062,730
2063,1064
2064,506
2065,659
2066,202
2067,499
2068,436
2069,661
2070,441
2071,391
2072,654
2073,1370
2074,596
2075,1496
2076,667
2077,224
2078,285
2079,667
2080,21
2081,286
2082,499
2083,328
2084,161
2085,495
2086,475
2087,1966
2088,20
2089,382
2090,402
2091,693
2092,2070
2093,411
2094,295
2095,642
2096,21
2097,245
2098,1756
2099,425
2100,63
2101,1165
2102,20
2103,638
2104,730
2105,539
2106,642
2107,295
2108,416
2109,391
2110,1345
2111,1370
2112,9
2113,198
2114,202
2115,674
2116,700
2117,165
2118,561
2119,1966
2120,245
2121,416
2122,566
2123,20
2124,425
2125,1162
2126,425
2127,539
2128,9
2129,382
2130,475
2131,677
2132,295
2133,574
2134,1877
2135,584
2136,373
2137,20
2138,638
2139,661
2140,63
2141,657
2142,285
2143,425
2144,161
2145,409
2146,384
2147,9
2148,117
2149,88
2150,63
2151,700
2152,295
2153,499
2154,646
2155,420
2156,15
2157,391
2158,402
2159,391
2160,642
2161,62
2162,20
2163,328
2164,802
2165,638
2166,700
2167,373
2168,419
2169,1064
2170,286
2171,436
2172,420
2173,286
2174,572
2175,642
2176,286
2177,647
2178,402
2179,698
2180,677
2181,456
2182,245
2183,1342
2184,712
2185,275
2186,674
2187,1573
2188,286
2189,391
2190,98
2191,202
2192,378
2193,642
2194,539
2195,1165
2196,726
2197,698
2198,746
2199,301
2200,619
2201,1165
2202,20
2203,85
2204,378
2205,499
2206,499
2207,1628
2208,302
2209,433
2210,745
2211,642
2212,56
2213,224
2214,62
2215,1165
2216,391
2217,161
2218,98
2219,409
2220,700
2221,1561
2222,1064
2223,302
2224,63
2225,301
2226,659
2227,1756
2228,85
2229,20
2230,272
2231,477
2232,352
2233,383
2234,298
2235,391
2236,1165
2237,416
2238,382
2239,352
2240,88
2241,553
2242,62
2243,803
2244,580
2245,1749
2246,1073
2247,630
2248,712
2249,441
2250,21
2251,286
2252,88
2253,20
2254,637
2255,638
2256,285
2257,224
2258,552
2259,730
2260,553
2261,1073
2262,436
2263,499
2264,738
2265,477
2266,647
2267,574
2268,245
2269,1438
2270,475
2271,1181
2272,630
2273,1342
2274,667
2275,516
2276,1035
2277,295
2278,21
2279,382
2280,1064
2281,352
2282,667
2283,606
2284,753
2285,587
2286,416
2287,1903
2288,384
2289,821
2290,365
2291,477
2292,20
2293,753
2294,270
2295,698
2296,383
2297,1162
2298,2080
2299,2070
2300,601
2301,396
2302,391
2303,477
2304,88
2305,803
2306,298
2307,698
2308,28
2309,381
2310,1330
2311,161
2312,596
2313,1573
2314,409
2315,738
2316,295
2317,712
2318,638
2319,63
2320,295
2321,688
2322,475
2323,378
2324,441
2325,21
2326,20
2327,420
2328,1073
2329,197
2330,62
2331,674
2332,647
2333,301
2334,1165
2335,523
2336,475
2337,1345
2338,746
2339,495
2340,442
2341,9
2342,676
2343,301
2344,693
2345,391
2346,516
2347,286
2348,566
2349,738
2350,506
2351,302
2352,409
2353,74
2354,654
2355,647
2356,98
2357,224
2358,295
2359,753
2360,420
2361,1895
2362,523
2363,88
2364,548
2365,224
2366,1370
2367,477
2368,495
2369,2080
2370,198
2371,396
2372,693
2373,821
2374,661
2375,301
2376,2080
2377,402
2378,572
2379,566
2380,391
2381,409
2382,726
2383,365
2384,586
2385,198
2386,646
2387,245
2388,667
2389,63
2390,391
2391,477
2392,56
2393,606
2394,523
2395,224
2396,1165
2397,579
2398,117
2399,553
2400,452
2401,709
2402,648
2403,1882
2404,15
2405,637
2406,495
2407,197
2408,667
2409,20
2410,676
2411,301
2412,730
2413,644
2414,673
2415,441
2416,646
2417,516
2418,572
2419,402
2420,2080
2421,661
2422,726
2423,402
2424,580
2425,9
2426,452
2427,642
2428,654
2429,516
2430,1643
2431,659
2432,409
2433,2070
2434,89
2435,637
2436,441
2437,161
2438,693
2439,659
2440,396
2441,396
2442,646
2443,572
2444,396
2445,63
2446,475
2447,198
2448,433
2449,499
2450,553
2451,516
2452,693
2453,647
2454,85
2455,475
2456,1330
2457,712
2458,667
2459,441
2460,28
2461,523
2462,147
2463,676
2464,382
2465,506
2466,638
2467,85
2468,506
2469,654
2470,619
2471,373
2472,63
2473,117
2474,630
2475,499
2476,1151
2477,197
2478,88
2479,627
2480,743
2481,700
2482,161
2483,751
2484,420
2485,745
2486,352
2487,700
2488,2080
2489,391
2490,1345
2491,245
2492,245
2493,574
2494,391
2495,161
2496,352
2497,1342
2498,712
2499,654
2500,301
2501,420
2502,601
2503,381
2504,477
2505,15
2506,1241
2507,685
2508,1181
2509,506
2510,202
2511,499
2512,63
2513,566
2514,15
2515,542
2516,584
2517,28
2518,21
2519,373
2520,685
2521,1345
2522,378
2523,402
2524,285
2525,455
2526,553
2527,442
2528,1162
2529,302
2530,674
2531,475
2532,89
2533,552
2534,676
2535,553
2536,642
2537,56
2538,475
2539,751
2540,63
2541,295
2542,295
2543,753
2544,642
2545,1181
2546,667
2547,285
2548,301
2549,685
2550,730
2551,378
2552,667
2553,381
2554,63
2555,730
2556,657
2557,295
2558,89
2559,391
2560,572
2561,1162
2562,9
2563,224
2564,20
2565,499
2566,738
2567,637
2568,1162
2569,409
2570,382
2571,661
2572,15
2573,743
2574,202
2575,654
2576,667
2577,9
2578,642
2579,396
2580,477
2581,601
2582,452
2583,198
2584,539
2585,402
2586,637
2587,477
2588,1165
2589,1496
2590,373
2591,2080
2592,698
2593,301
2594,821
2595,646
2596,202
2597,301
2598,1064
2599,1073
2600,499
2601,1345
2602,286
2603,1165
2604,638
2605,298
2606,638
2607,516
2608,698
2609,580
2610,15
2611,753
2612,743
2613,537
2614,661
2615,601
2616,1573
2617,382
2618,382
2619,391
2620,21
2621,20
2622,147
2623,561
2624,647
2625,637
2626,1162
2627,286
2628,698
2629,637
2630,556
2631,373
2632,553
2633,1966
2634,433
2635,637
2636,698
2637,416
2638,574
2639,1342
2640,647
2641,20
2642,661
2643,619
2644,495
2645,161
2646,495
2647,328
2648,584
2649,596
2650,384
2651,202
2652,409
2653,98
2654,751
2655,580
2656,416
2657,202
2658,779
2659,523
2660,566
2661,673
2662,1035
2663,1165
2664,548
2665,21
2666,1342
2667,532
2668,638
2669,9
2670,20
2671,751
2672,637
2673,690
2674,561
2675,9
2676,553
2677,699
2678,409
2679,352
2680,1370
2681,88
2682,452
2683,654
2684,637
2685,499
2686,661
2687,381
2688,402
2689,98
2690,117
2691,1756
2692,270
2693,638
2694,638
2695,580
2696,726
2697,352
2698,579
2699,98
2700,637
2701,811
2702,28
2703,20
2704,117
2705,197
2706,506
2707,566
2708,416
2709,298
2710,28
2711,409
2712,286
2713,475
2714,198
2715,74
2716,301
2717,676
2718,161
2719,1165
2720,499
2721,556
2722,437
2723,1342
2724,373
2725,20
2726,2041
2727,1162
2728,352
2729,1330
2730,1181
2731,1064
2732,566
2733,1895
2734,1181
2735,642
2736,20
2737,396
2738,98
2739,411
2740,2080
2741,198
2742,1895
2743,420
2744,1073
2745,391
2746,381
2747,724
2748,698
2749,667
2750,552
2751,556
2752,561
2753,566
2754,224
2755,402
2756,21
2757,1749
2758,373
2759,552
2760,637
2761,647
2762,553
2763,1882
2764,638
2765,746
2766,2041
2767,1496
2768,580
2769,730
2770,745
2771,328
2772,198
2773,409
2774,690
2775,690
2776,654
2777,650
2778,516
2779,475
2780,516
2781,382
2782,1902
2783,391
2784,198
2785,85
2786,98
2787,542
2788,475
2789,383
2790,821
2791,198
2792,542
2793,730
2794,420
2795,642
2796,556
2797,85
2798,630
2799,365
2800,596
2801,552
2802,436
2803,659
2804,2070
2805,224
2806,89
2807,301
2808,693
2809,1342
2810,381
2811,572
2812,88
2813,15
2814,420
2815,328
2816,516
2817,1882
2818,637
2819,661
2820,638
2821,365
2822,391
2823,580
2824,646
2825,197
2826,1756
2827,648
2828,161
2829,642
2830,738
2831,381
2832,409
2833,197
2834,698
2835,63
2836,753
2837,88
2838,553
2839,751
2840,637
2841,516
2842,198
2843,561
2844,580
2845,286
2846,365
2847,743
2848,270
2849,1438
2850,382
2851,245
2852,286
2853,224
2854,21
2855,1064
2856,537
2857,402
2858,302
2859,298
2860,1345
2861,699
2862,88
2863,661
2864,637
2865,1345
2866,743
2867,516
2868,627
2869,579
2870,1645
2871,1496
2872,495
2873,465
2874,661
2875,580
2876,661
2877,1394
2878,738
2879,371
2880,245
2881,1756
2882,402
2883,690
2884,408
2885,730
2886,224
2887,712
2888,1749
2889,743
2890,270
2891,1181
2892,371
2893,402
2894,2094
2895,1749
2896,1165
2897,1749
2898,532
2899,1370
2900,1903
2901,667
2902,425
2903,302
2904,15
2905,383
2906,270
2907,339
2908,1749
2909,9
2910,753
2911,661
2912,580
2913,441
2914,224
2915,381
2916,275
2917,779
2918,1496
2919,574
2920,295
2921,21
2922,726
2923,566
2924,667
2925,700
2926,556
2927,619
2928,523
2929,286
2930,381
2931,1073
2932,21
2933,1561
2934,726
2935,553
2936,1073
2937,644
2938,161
2939,419
2940,661
2941,601
2942,802
2943,516
2944,637
2945,245
2946,328
2947,402
2948,391
2949,1345
2950,272
2951,1606
2952,1151
2953,1345
2954,654
2955,477
2956,198
2957,381
2958,584
2959,638
2960,367
2961,197
2962,285
2963,821
2964,1966
2965,286
2966,654
2967,552
2968,572
2969,1837
2970,21
2971,661
2972,745
2973,630
2974,548
2975,302
2976,542
2977,441
2978,1370
2979,552
2980,9
2981,537
2982,516
2983,506
2984,197
2985,301
2986,295
2987,198
2988,642
2989,117
2990,411
2991,161
2992,1151
2993,630
2994,584
2995,648
2996,197
2997,1837
2998,62
2999,416
3000,286
3001,644
3002,85
3003,580
3004,420
3005,1165
3006,646
3007,637
3008,382
3009,506
3010,475
3011,572
3012,693
3013,803
3014,1181
3015,516
3016,20
3017,391
3018,495
3019,441
3020,197
3021,475
3022,698
3023,1330
3024,477
3025,420
3026,352
3027,98
3028,1073
3029,1902
3030,1756
3031,302
3032,638
3033,534
3034,198
3035,88
3036,411
3037,553
3038,647
3039,523
3040,700
3041,391
3042,224
3043,1756
3044,685
3045,224
3046,646
3047,416
3048,328
3049,371
3050,1628
3051,15
3052,572
3053,272
3054,88
3055,285
3056,700
3057,566
3058,270
3059,661
3060,2094
3061,365
3062,9
3063,712
3064,224
3065,378
3066,584
3067,699
3068,302
3069,1162
3070,779
3071,661
3072,700
3073,475
3074,285
3075,637
3076,637
3077,574
3078,745
3079,753
3080,1882
3081,1035
3082,601
3083,197
3084,743
3085,391
3086,475
3087,646
3088,637
3089,654
3090,698
3091,301
3092,627
3093,580
3094,197
3095,532
3096,74
3097,648
3098,88
3099,1165
3100,1064
3101,1330
3102,724
3103,586
3104,20
3105,117
3106,475
3107,1895
3108,647
3109,286
3110,85
3111,637
3112,2041
3113,654
3114,516
3115,677
3116,1165
3117,516
3118,301
3119,1625
3120,63
3121,373
3122,579
3123,698
3124,416
3125,161
3126,62
3127,285
3128,20
3129,516
3130,420
3131,382
3132,1756
3133,373
3134,441
3135,1064
3136,465
3137,499
3138,753
3139,619
3140,98
3141,373
3142,548
3143,1882
3144,409
3145,654
3146,295
3147,224
3148,712
3149,198
3150,62
3151,28
3152,709
3153,295
3154,74
3155,647
3156,88
3157,28
3158,676
3159,373
3160,1966
3161,685
3162,416
3163,584
3164,9
3165,21
3166,286
3167,637
3168,601
3169,821
3170,637
3171,630
3172,1837
3173,409
3174,441
3175,409
3176,383
3177,301
3178,20
3179,601
3180,245
3181,726
3182,416
3183,441
3184,442
3185,659
3186,1073
3187,198
3188,700
3189,495
3190,272
3191,409
3192,420
3193,1064
3194,698
3195,416
3196,302
3197,2080
3198,654
3199,285
3200,495
3201,402
3202,382
3203,295
3204,1162
3205,391
3206,378
3207,1181
3208,685
3209,15
3210,298
3211,572
3212,62
3213,161
3214,552
3215,552
3216,328
3217,601
3218,553
3219,821
3220,9
3221,646
3222,198
3223,286
3224,674
3225,730
3226,730
3227,647
3228,637
3229,1064
3230,295
3231,245
3232,738
3233,745
3234,561
3235,20
3236,452
3237,88
3238,539
3239,475
3240,441
3241,202
3242,654
3243,365
3244,644
3245,98
3246,285
3247,1882
3248,147
3249,98
3250,161
3251,630
3252,712
3253,506
3254,371
3255,753
3256,586
3257,452
3258,301
3259,523
3260,654
3261,580
3262,339
3263,803
3264,365
3265,301
3266,677
3267,1496
3268,596
3269,161
3270,1342
3271,1330
3272,803
3273,685
3274,245
3275,88
3276,28
3277,1966
3278,495
3279,286
3280,751
3281,98
3282,382
3283,743
3284,441
3285,245
3286,381
3287,420
3288,409
3289,1345
3290,553
3291,441
3292,566
3293,161
3294,638
3295,2070
3296,1345
3297,553
3298,1035
3299,1756
3300,654
3301,1345
3302,202
3303,21
3304,408
3305,15
3306,416
3307,301
3308,1370
3309,654
3310,1573
3311,642
3312,506
3313,1345
3314,20
3315,1162
3316,371
3317,21
3318,753
3319,1882
3320,74
3321,20
3322,475
3323,409
3324,301
3325,586
3326,659
3327,371
3328,378
3329,654
3330,161
3331,198
3332,1903
3333,391
3334,301
3335,676
3336,224
3337,584
3338,821
3339,619
3340,698
3341,475
3342,15
3343,548
3344,98
3345,161
3346,89
3347,638
3348,298
3349,21
3350,270
3351,637
3352,2059
3353,437
3354,1966
3355,539
3356,566
3357,441
3358,712
3359,420
3360,743
3361,74
3362,539
3363,1345
3364,425
3365,753
3366,659
3367,198
3368,433
3369,420
3370,1837
3371,295
3372,20
3373,1073
3374,745
3375,751
3376,745
3377,402
3378,730
3379,753
3380,561
3381,298
3382,495
3383,161
3384,441
3385,371
3386,596
3387,2070
3388,1749
3389,328
3390,56
3391,1837
3392,630
3393,647
3394,298
3395,495
3396,224
3397,1606
3398,659
3399,224
3400,630
3401,442
3402,574
3403,2080
3404,1064
3405,383
3406,667
3407,198
3408,20
3409,1438
3410,561
3411,646
3412,523
3413,1561
3414,411
3415,285
3416,245
3417,396
3418,667
3419,673
3420,295
3421,1345
3422,270
3423,654
3424,661
3425,1837
3426,198
3427,301
3428,408
3429,630
3430,553
3431,382
3432,596
3433,698
3434,224
3435,738
3436,161
3437,202
3438,561
3439,698
3440,1496
3441,352
3442,698
3443,378
3444,495
3445,586
3446,637
3447,477
3448,1073
3449,1064
3450,420
3451,381
3452,726
3453,20
3454,580
3455,1151
3456,382
3457,637
3458,677
3459,295
3460,245
3461,574
3462,743
3463,1837
3464,21
3465,147
3466,20
3467,579
3468,1345
3469,56
3470,88
3471,452
3472,699
3473,62
3474,224
3475,654
3476,2041
3477,743
3478,285
3479,700
3480,409
3481,224
3482,661
3483,117
3484,495
3485,646
3486,286
3487,441
3488,391
3489,1882
3490,224
3491,1370
3492,224
3493,224
3494,224
3495,1073
3496,548
3497,630
3498,630
3499,198
3500,441
3501,456
3502,28
3503,499
3504,646
3505,402
3506,302
3507,286
3508,1837
3509,638
3510,402
3511,753
3512,821
3513,753
3514,378
3515,285
3516,661
3517,698
3518,579
3519,646
3520,9
3521,88
3522,1606
3523,373
3524,295
3525,700
3526,1330
3527,1370
3528,381
3529,539
3530,396
3531,202
3532,579
3533,1035
3534,88
3535,1606
3536,365
3537,667
3538,1496
3539,441
3540,20
3541,556
3542,161
3543,245
3544,685
3545,601
3546,198
3547,644
3548,425
3549,409
3550,2070
3551,373
3552,698
3553,1837
3554,455
3555,381
3556,9
3557,2094
3558,298
3559,654
3560,742
3561,534
3562,63
3563,98
3564,601
3565,85
3566,1573
3567,698
3568,475
3569,579
3570,542
3571,20
3572,441
3573,1345
3574,726
3575,298
3576,475
3577,495
3578,63
3579,685
3580,74
3581,580
3582,561
3583,365
3584,88
3585,441
3586,1496
3587,821
3588,637
3589,197
3590,365
3591,436
3592,20
3593,724
3594,637
3595,630
3596,821
3597,566
3598,85
3599,677
3600,1573
3601,56
3602,572
3603,89
3604,700
3605,580
3606,637
3607,245
3608,499
3609,1877
3610,637
3611,1895
3612,495
3613,63
3614,202
3615,1756
3616,198
3617,367
3618,1370
3619,654
3620,646
3621,677
3622,441
3623,245
3624,301
3625,441
3626,1496
3627,301
3628,637
3629,690
3630,286
3631,698
3632,698
3633,224
3634,391
3635,85
3636,1902
3637,74
3638,726
3639,383
3640,751
3641,20
3642,21
3643,1882
3644,495
3645,700
3646,1162
3647,365
3648,738
3649,275
3650,738
3651,572
3652,516
3653,286
3654,516
3655,9
3656,516
3657,516
3658,62
3659,753
3660,339
3661,751
3662,506
3663,745
3664,534
3665,746
3666,63
3667,1496
3668,452
3669,1496
3670,224
3671,2080
3672,1496
3673,644
3674,580
3675,1645
3676,391
3677,1035
3678,352
3679,384
3680,566
3681,436
3682,693
3683,21
3684,88
3685,301
3686,1345
3687,548
3688,391
3689,659
3690,382
3691,420
3692,396
3693,21
3694,532
3695,88
3696,1496
3697,642
3698,202
3699,378
3700,198
3701,596
3702,751
3703,566
3704,726
3705,1342
3706,436
3707,561
3708,328
3709,1342
3710,1181
3711,637
3712,408
3713,117
3714,751
3715,745
3716,606
3717,441
3718,1162
3719,552
3720,298
3721,161
3722,98
3723,642
3724,298
3725,572
3726,698
3727,286
3728,1438
3729,584
3730,646
3731,285
3732,21
3733,295
3734,667
3735,1902
3736,442
3737,1345
3738,698
3739,580
3740,365
3741,654
3742,688
3743,301
3744,1749
3745,699
3746,627
3747,566
3748,20
3749,637
3750,495
3751,224
3752,475
3753,28
3754,637
3755,1342
3756,198
3757,630
3758,381
3759,532
3760,382
3761,642
3762,117
3763,802
3764,499
3765,396
3766,367
3767,198
3768,726
3769,21
3770,674
3771,1162
3772,161
3773,477
3774,647
3775,20
3776,161
3777,637
3778,646
3779,9
3780,15
3781,396
3782,646
3783,523
3784,1568
3785,724
3786,1756
3787,197
3788,659
3789,224
3790,1330
3791,301
3792,642
3793,9
3794,409
3795,667
3796,63
3797,411
3798,646
3799,202
3800,698
3801,1073
3802,646
3803,630
3804,1625
3805,667
3806,690
3807,642
3808,391
3809,596
3810,63
3811,21
3812,677
3813,20
3814,566
3815,21
3816,88
3817,646
3818,9
3819,224
3820,9
3821,373
3822,516
3823,738
3824,62
3825,561
3826,1561
3827,371
3828,21
3829,516
3830,542
3831,21
3832,561
3833,638
3834,642
3835,28
3836,601
3837,1165
3838,419
3839,88
3840,690
3841,455
3842,700
3843,1561
3844,630
3845,499
3846,587
3847,1165
3848,328
3849,373
3850,726
3851,197
3852,642
3853,657
3854,1606
3855,532
3856,391
3857,147
3858,726
3859,1606
3860,1496
3861,409
3862,580
3863,642
3864,425
3865,224
3866,1568
3867,391
3868,1162
3869,408
3870,674
3871,198
3872,21
3873,286
3874,1345
3875,477
3876,161
3877,1073
3878,147
3879,1625
3880,779
3881,579
3882,436
3883,88
3884,743
3885,381
3886,295
3887,352
3888,676
3889,224
3890,630
3891,74
3892,506
3893,475
3894,506
3895,270
3896,20
3897,539
3898,637
3899,2059
3900,98
3901,2041
3902,302
3903,391
3904,1496
3905,1903
3906,1756
3907,245
3908,646
3909,62
3910,21
3911,286
3912,441
3913,88
3914,1895
3915,295
3916,20
3917,455
3918,9
3919,456
3920,1573
3921,62
3922,391
3923,452
3924,286
3925,638
3926,198
3927,391
3928,161
3929,1756
3930,382
3931,642
3932,420
3933,542
3934,21
3935,286
3936,685
3937,688
3938,402
3939,224
3940,601
3941,751
3942,646
3943,409
3944,674
3945,88
3946,667
3947,270
3948,98
3949,1165
3950,20
3951,685
3952,667
3953,365
3954,579
3955,368
3956,21
3957,285
3958,441
3959,89
3960,425
3961,382
3962,1966
3963,676
3964,654
3965,803
3966,1756
3967,657
3968,85
3969,420
3970,352
3971,1496
3972,285
3973,642
3974,1496
3975,224
3976,619
3977,499
3978,561
3979,685
3980,574
3981,98
3982,198
3983,117
3984,698
3985,452
3986,396
3987,553
3988,646
3989,272
3990,270
3991,532
3992,1606
3993,637
3994,647
3995,2070
3996,700
3997,202
3998,572
3999,552
4000,117
4001,198
4002,98
4003,298
4004,572
4005,637
4006,659
4007,667
4008,1756
4009,637
4010,295
4011,654
4012,245
4013,572
4014,371
4015,596
4016,1573
4017,301
4018,495
4019,690
4020,20
4021,654
4022,601
4023,373
4024,724
4025,1345
4026,1756
4027,644
4028,561
4029,420
4030,245
4031,553
4032,197
4033,753
4034,553
4035,532
4036,62
4037,619
4038,420
4039,63
4040,198
4041,647
4042,499
4043,301
4044,1573
4045,657
4046,117
4047,9
4048,245
4049,382
4050,88
4051,699
4052,98
4053,726
4054,1064
4055,373
4056,198
4057,298
4058,396
4059,373
4060,455
4061,745
4062,627
4063,475
4064,1882
4065,743
4066,574
4067,20
4068,245
4069,402
4070,1064
4071,1903
4072,456
4073,295
4074,673
4075,751
4076,436
4077,455
4078,56
4079,674
4080,1073
4081,499
4082,20
4083,646
4084,409
4085,286
4086,21
4087,1902
4088,2070
4089,539
4090,368
4091,580
4092,566
4093,475
4094,638
4095,1877
4096,2080
4097,301
4098,596
4099,409
4100,743
4101,409
4102,1165
4103,726
4104,161
4105,539
4106,1151
4107,674
4108,667
4109,642
4110,20
4111,198
4112,553
4113,409
4114,477
4115,409
4116,654
4117,802
4118,302
4119,1342
4120,1496
4121,198
4122,15
4123,642
4124,88
4125,28
4126,117
4127,224
4128,1837
4129,245
4130,382
4131,693
4132,646
4133,452
4134,198
4135,667
4136,371
4137,724
4138,88
4139,9
4140,730
4141,1162
4142,506
4143,1561
4144,1345
4145,699
4146,98
4147,286
4148,698
4149,693
4150,15
4151,698
4152,580
4153,197
4154,301
4155,821
4156,245
4157,56
4158,409
4159,245
4160,224
4161,572
4162,637
4163,642
4164,638
4165,409
4166,378
4167,552
4168,416
4169,373
4170,743
4171,391
4172,198
4173,98
4174,382
4175,730
4176,245
4177,21
4178,657
4179,384
4180,1625
4181,580
4182,751
4183,198
4184,198
4185,295
4186,198
4187,730
4188,709
4189,630
4190,382
4191,676
4192,409
4193,373
4194,197
4195,630
4196,2041
4197,62
4198,275
4199,638
4200,648
4201,654
4202,409
4203,1064
4204,667
4205,700
4206,646
4207,742
4208,295
4209,63
4210,566
4211,285
4212,245
4213,627
4214,625
4215,811
4216,475
4217,745
4218,270
4219,1749
4220,382
4221,286
4222,1756
4223,548
4224,693
4225,506
4226,328
4227,572
4228,2080
4229,301
4230,499
4231,441
4232,475
4233,420
4234,746
4235,441
4236,642
4237,301
4238,224
4239,646
4240,654
4241,539
4242,751
4243,1496
4244,659
4245,516
4246,1628
4247,1749
4248,384
4249,532
4250,272
4251,647
4252,147
4253,587
4254,74
4255,1370
4256,161
4257,647
4258,556
4259,286
4260,286
4261,648
4262,688
4263,698
4264,725
4265,416
4266,638
4267,1837
4268,516
4269,62
4270,301
4271,9
4272,1625
4273,659
4274,572
4275,286
4276,700
4277,9
4278,654
4279,98
4280,637
4281,63
4282,147
4283,117
4284,88
4285,677
4286,654
4287,85
4288,1370
4289,495
4290,700
4291,753
4292,548
4293,654
4294,270
4295,88
4296,607
4297,685
4298,381
4299,285
4300,1181
4301,579
4302,1165
4303,630
4304,648
4305,580
4306,365
4307,301
4308,677
4309,452
4310,659
4311,286
4312,1837
4313,420
4314,709
4315,751
4316,1330
4317,161
4318,667
4319,1496
4320,534
4321,2094
4322,420
4323,523
4324,378
4325,270
4326,161
4327,295
4328,441
4329,712
4330,475
4331,98
4332,638
4333,1035
4334,416
4335,1625
4336,1162
4337,391
4338,477
4339,20
4340,693
4341,56
4342,20
4343,532
4344,693
4345,821
4346,409
4347,637
4348,441
4349,1628
4350,642
4351,20
4352,298
4353,202
4354,28
4355,1064
4356,700
4357,391
4358,638
4359,21
4360,286
4361,646
4362,1151
4363,117
4364,561
4365,384
4366,506
4367,659
4368,1573
4369,301
4370,700
4371,667
4372,1345
4373,1496
4374,396
4375,698
4376,596
4377,20
4378,1162
4379,20
4380,553
4381,202
4382,391
4383,1606
4384,1151
4385,301
4386,698
4387,1165
4388,1162
4389,738
4390,381
4391,419
4392,1496
4393,821
4394,556
4395,224
4396,596
4397,301
4398,580
4399,117
4400,381
4401,1625
4402,21
4403,580
4404,381
4405,693
4406,1756
4407,1151
4408,661
4409,1837
4410,637
4411,117
4412,586
4413,433
4414,1165
4415,580
4416,745
4417,638
4418,677
4419,301
4420,746
4421,400
4422,286
4423,724
4424,198
4425,730
4426,9
4427,396
4428,693
4429,495
4430,391
4431,198
4432,298
4433,272
4434,654
4435,644
4436,295
4437,1606
4438,452
4439,20
4440,693
4441,745
4442,270
4443,637
4444,198
4445,627
4446,381
4447,382
4448,561
4449,9
4450,638
4451,586
4452,779
4453,506
4454,638
4455,516
4456,224
4457,803
4458,637
4459,21
4460,198
4461,89
4462,63
4463,272
4464,693
4465,28
4466,661
4467,21
4468,352
4469,28
4470,751
4471,20
4472,285
4473,15
4474,650
4475,382
4476,161
4477,1877
4478,654
4479,1749
4480,117
4481,409
4482,1162
4483,198
4484,637
4485,285
4486,202
4487,20
4488,441
4489,409
4490,98
4491,298
4492,499
4493,88
4494,198
4495,556
4496,646
4497,198
4498,673
4499,724
4500,516
4501,542
4502,693
4503,391
4504,642
4505,441
4506,416
4507,117
4508,147
4509,642
4510,1342
4511,661
4512,286
4513,1345
4514,270
4515,561
4516,676
4517,298
4518,1438
4519,161
4520,298
4521,416
4522,202
4523,21
4524,396
4525,642
4526,301
4527,88
4528,601
4529,574
4530,198
4531,88
4532,532
4533,661
4534,690
4535,425
4536,63
4537,637
4538,63
4539,1903
4540,1342
4541,646
4542,270
4543,411
4544,712
4545,20
4546,270
4547,572
4548,698
4549,1902
4550,2059
4551,2041
4552,1151
4553,339
4554,523
4555,642
4556,224
4557,1625
4558,516
4559,20
4560,667
4561,495
4562,2080
4563,654
4564,202
4565,198
4566,606
4567,1749
4568,20
4569,245
4570,730
4571,88
4572,685
4573,301
4574,637
4575,74
4576,74
4577,709
4578,98
4579,667
4580,456
4581,745
4582,586
4583,1064
4584,606
4585,298
4586,698
4587,339
4588,726
4589,416
4590,391
4591,420
4592,286
4593,352
4594,495
4595,1756
4596,15
4597,62
4598,674
4599,1438
4600,224
4601,117
4602,378
4603,433
4604,646
4605,28
4606,85
4607,566
4608,751
4609,690
4610,630
4611,301
4612,1966
4613,700
4614,746
4615,579
4616,391
4617,539
4618,552
4619,2041
4620,601
4621,117
4622,441
4623,452
4624,442
4625,88
4626,698
4627,726
4628,667
4629,88
4630,685
4631,1625
4632,286
4633,20
4634,553
4635,420
4636,677
4637,730
4638,753
4639,566
4640,117
4641,198
4642,224
4643,1643
4644,709
4645,442
4646,657
4647,286
4648,580
4649,738
4650,1606
4651,654
4652,499
4653,1162
4654,646
4655,647
4656,436
4657,197
4658,553
4659,724
4660,21
4661,20
4662,198
4663,700
4664,642
4665,654
4666,441
4667,561
4668,661
4669,700
4670,301
4671,646
4672,441
4673,339
4674,198
4675,1345
4676,654
4677,419
4678,371
4679,506
4680,642
4681,637
4682,396
4683,9
4684,442
4685,572
4686,580
4687,1064
4688,98
4689,753
4690,644
4691,539
4692,627
4693,301
4694,1165
4695,475
4696,1882
4697,286
4698,566
4699,1064
4700,495
4701,1064
4702,328
4703,646
4704,1345
4705,1073
4706,1625
4707,654
4708,302
4709,693
4710,685
4711,553
4712,285
4713,566
4714,548
4715,420
4716,400
4717,63
4718,1073
4719,552
4720,667
4721,1370
4722,661
4723,1837
4724,147
4725,402
4726,88
4727,452
4728,552
4729,411
4730,224
4731,637
4732,301
4733,161
4734,433
4735,685
4736,391
4737,161
4738,270
4739,328
4740,436
4741,295
4742,693
4743,637
4744,15
4745,580
4746,1165
4747,2070
4748,373
4749,20
4750,743
4751,726
4752,674
4753,197
4754,62
4755,745
4756,475
4757,654
4758,556
4759,539
4760,654
4761,455
4762,637
4763,63
4764,698
4765,301
4766,402
4767,745
4768,1342
4769,378
4770,117
4771,441
4772,495
4773,245
4774,674
4775,224
4776,245
4777,368
4778,587
4779,659
4780,117
4781,726
4782,712
4783,2080
4784,198
4785,301
4786,587
4787,1165
4788,301
4789,301
4790,730
4791,539
4792,584
4793,301
4794,661
4795,21
4796,21
4797,21
4798,580
4799,552
4800,198
4801,574
4802,803
4803,416
4804,1035
4805,1756
4806,1162
4807,302
4808,197
4809,2080
4810,202
4811,62
4812,1625
4813,433
4814,1064
4815,638
4816,62
4817,532
4818,685
4819,409
4820,532
4821,20
4822,298
4823,285
4824,328
4825,745
4826,572
4827,1165
4828,20
4829,224
4830,197
4831,642
4832,409
4833,499
4834,1165
4835,1606
4836,746
4837,197
4838,301
4839,1162
4840,802
4841,373
4842,667
4843,516
4844,677
4845,433
4846,743
4847,384
4848,803
4849,202
4850,21
4851,606
4852,391
4853,1496
4854,301
4855,382
4856,383
4857,1073
4858,378
4859,368
4860,198
4861,365
4862,654
4863,751
4864,378
4865,198
4866,580
4867,693
4868,21
4869,1756
4870,384
4871,371
4872,532
4873,224
4874,821
4875,442
4876,88
4877,301
4878,574
4879,420
4880,552
4881,63
4882,724
4883,579
4884,1625
4885,456
4886,1625
4887,452
4888,542
4889,373
4890,677
4891,561
4892,1837
4893,1561
4894,475
4895,420
4896,396
4897,224
4898,402
4899,420
4900,298
4901,553
4902,674
4903,495
4904,753
4905,730
4906,646
4907,693
4908,572
4909,712
4910,638
4911,88
4912,224
4913,85
4914,295
4915,1837
4916,495
4917,62
4918,674
4919,646
4920,506
4921,1561
4922,411
4923,742
4924,580
4925,553
4926,455
4927,2041
4928,753
4929,381
4930,198
4931,659
4932,382
4933,20
4934,441
4935,161
4936,523
4937,21
4938,56
4939,700
4940,202
4941,556
4942,20
4943,298
4944,74
4945,63
4946,301
4947,659
4948,371
4949,642
4950,295
4951,1756
4952,1165
4953,1625
4954,572
4955,411
4956,667
4957,56
4958,302
4959,661
4960,1073
4961,382
4962,298
4963,373
4964,161
4965,420
4966,642
4967,601
4968,88
4969,245
4970,270
4971,21
4972,20
4973,21
4974,601
4975,224
4976,1606
4977,548
4978,698
4979,638
4980,197
4981,391
4982,579
4983,20
4984,452
4985,420
4986,89
4987,441
4988,20
4989,442
4990,270
4991,441
4992,452
4993,499
4994,693
4995,98
4996,1645
4997,698
4998,420
4999,452
5000,745
5001,1064
5002,224
5003,1756
5004,1966
5005,751
5006,378
5007,198
5008,587
5009,637
5010,584
5011,365
5012,272
5013,270
5014,1756
5015,409
5016,821
5017,698
5018,28
5019,63
5020,245
5021,382
5022,365
5023,286
5024,197
5025,654
5026,371
5027,301
5028,245
5029,637
5030,753
5031,63
5032,161
5033,89
5034,712
5035,657
5036,63
5037,411
5038,1370
5039,1606
5040,1438
5041,419
5042,62
5043,20
5044,700
5045,556
5046,506
5047,539
5048,391
5049,301
5050,539
5051,654
5052,580
5053,285
5054,382
5055,637
5056,391
5057,751
5058,587
5059,88
5060,1643
5061,650
5062,637
5063,21
5064,20
5065,1342
5066,416
5067,659
5068,712
5069,601
5070,382
5071,285
5072,301
5073,396
5074,803
5075,596
5076,654
5077,2094
5078,587
5079,753
5080,1073
5081,724
5082,690
5083,587
5084,373
5085,1064
5086,753
5087,2080
5088,1151
5089,646
5090,455
5091,646
5092,751
5093,411
5094,499
5095,596
5096,198
5097,667
5098,572
5099,659
5100,161
5101,1496
5102,580
5103,391
5104,302
5105,644
5106,456
5107,1895
5108,1966
5109,391
5110,1165
5111,499
5112,677
5113,495
5114,56
5115,88
5116,20
5117,745
5118,1749
5119,751
5120,574
5121,475
5122,637
5123,556
5124,1345
5125,637
5126,601
5127,477
5128,117
5129,637
5130,642
5131,1073
5132,646
5133,15
5134,638
5135,2080
5136,245
5137,1568
5138,21
5139,495
5140,637
5141,1756
5142,647
5143,328
5144,452
5145,726
5146,1165
5147,1073
5148,89
5149,661
5150,245
5151,21
5152,738
5153,416
5154,698
5155,648
5156,676
5157,601
5158,553
5159,198
5160,88
5161,1330
5162,572
5163,566
5164,117
5165,245
5166,646
5167,1756
5168,436
5169,245
5170,21
5171,638
5172,646
5173,270
5174,745
5175,738
5176,745
5177,580
5178,409
5179,475
5180,1370
5181,738
5182,9
5183,698
5184,661
5185,690
5186,286
5187,85
5188,382
5189,21
5190,751
5191,295
5192,654
5193,1902
5194,301
5195,1181
5196,117
5197,224
5198,396
5199,302
5200,89
5201,712
5202,20
5203,301
5204,272
5205,637
5206,295
5207,455
5208,89
5209,475
5210,328
5211,202
5212,396
5213,1165
5214,685
5215,539
5216,661
5217,601
5218,425
5219,436
5220,601
5221,646
5222,98
5223,637
5224,352
5225,667
5226,302
5227,1241
5228,270
5229,117
5230,352
5231,661
5232,637
5233,295
5234,1496
5235,1496
5236,552
5237,286
5238,298
5239,371
5240,441
5241,9
5242,1342
5243,1749
5244,286
5245,587
5246,62
5247,202
5248,301
5249,396
5250,654
5251,1496
5252,693
5253,63
5254,441
5255,416
5256,475
5257,654
5258,556
5259,1330
5260,420
5261,743
5262,475
5263,270
5264,646
5265,779
5266,352
5267,676
5268,298
5269,198
5270,637
5271,198
5272,391
5273,245
5274,1606
5275,1162
5276,20
5277,700
5278,751
5279,21
5280,442
5281,637
5282,746
5283,20
5284,285
5285,642
5286,516
5287,98
5288,646
5289,85
5290,1073
5291,1606
5292,302
5293,1064
5294,700
5295,1151
5296,1370
5297,688
5298,661
5299,698
5300,382
5301,700
5302,1064
5303,20
5304,726
5305,378
5306,198
5307,1573
5308,548
5309,574
5310,161
5311,161
5312,295
5313,506
5314,391
5315,224
5316,441
5317,596
5318,298
5319,1330
5320,685
5321,596
5322,245
5323,1606
5324,1370
5325,1881
5326,391
5327,516
5328,371
5329,88
5330,245
5331,224
5332,245
5333,21
5334,688
5335,382
5336,85
5337,1496
5338,586
5339,62
5340,690
5341,596
5342,1165
5343,452
5344,548
5345,1819
5346,730
5347,20
5348,161
5349,436
5350,596
5351,642
5352,1064
5353,161
5354,298
5355,548
5356,1162
5357,693
5358,657
5359,63
5360,532
5361,298
5362,712
5363,63
5364,561
5365,202
5366,647
5367,20
5368,1064
5369,698
5370,580
5371,572
5372,646
5373,477
5374,553
5375,396
5376,506
5377,1756
5378,391
5379,627
5380,561
5381,441
5382,751
5383,411
5384,224
5385,1625
5386,584
5387,553
5388,539
5389,499
5390,286
5391,161
5392,21
5393,165
5394,272
5395,88
5396,580
5397,596
5398,198
5399,495
5400,1625
5401,9
5402,495
5403,62
5404,396
5405,566
5406,1345
5407,659
5408,726
5409,378
5410,1073
5411,688
5412,499
5413,572
5414,419
5415,197
5416,402
5417,1165
5418,373
5419,245
5420,98
5421,745
5422,382
5423,1625
5424,301
5425,441
5426,352
5427,301
5428,391
5429,270
5430,286
5431,295
5432,21
5433,646
5434,373
5435,553
5436,1370
5437,295
5438,409
5439,1625
5440,1064
5441,685
5442,532
5443,693
5444,371
5445,452
5446,637
5447,552
5448,161
5449,745
5450,89
5451,637
5452,295
5453,1345
5454,1756
5455,272
5456,442
5457,21
5458,730
5459,441
5460,690
5461,685
5462,661
5463,298
5464,637
5465,730
5466,495
5467,402
5468,532
5469,416
5470,475
5471,382
5472,637
5473,198
5474,1165
5475,88
5476,1330
5477,674
5478,371
5479,295
5480,477
5481,56
5482,709
5483,667
5484,416
5485,373
5486,580
5487,197
5488,2059
5489,661
5490,285
5491,245
5492,688
5493,1882
5494,661
5495,1181
5496,88
5497,1162
5498,302
5499,302
5500,572
5501,339
5502,1573
5503,352
5504,693
5505,365
5506,20
5507,539
5508,433
5509,409
5510,553
5511,539
5512,371
5513,301
5514,442
5515,1625
5516,580
5517,698
5518,1073
5519,648
5520,15
5521,552
5522,224
5523,1568
5524,396
5525,198
5526,455
5527,700
5528,224
5529,726
5530,270
5531,411
5532,63
5533,1165
5534,21
5535,9
5536,441
5537,700
5538,441
5539,1496
5540,88
5541,452
5542,409
5543,516
5544,20
5545,1881
5546,2070
5547,821
5548,646
5549,286
5550,88
5551,1330
5552,657
5553,637
5554,642
5555,98
5556,85
5557,1035
5558,539
5559,433
5560,673
5561,381
5562,420
5563,286
5564,700
5565,693
5566,637
5567,821
5568,456
5569,197
5570,667
5571,56
5572,566
5573,1330
5574,224
5575,552
5576,654
5577,698
5578,1345
5579,411
5580,1162
5581,1496
5582,619
5583,751
5584,396
5585,202
5586,441
5587,1064
5588,601
5589,587
5590,725
5591,198
5592,553
5593,1496
5594,580
5595,698
5596,667
5597,442
5598,566
5599,89
5600,698
5601,566
5602,642
5603,475
5604,275
5605,373
5606,630
5607,1165
5608,1625
5609,477
5610,642
5611,245
5612,382
5613,673
5614,693
5615,88
5616,532
5617,441
5618,647
5619,676
5620,455
5621,607
5622,9
5623,1162
5624,1895
5625,416
5626,452
5627,619
5628,726
5629,742
5630,1496
5631,738
5632,561
5633,499
5634,224
5635,726
5636,20
5637,298
5638,821
5639,15
5640,224
5641,198
5642,9
5643,1370
5644,561
5645,548
5646,700
5647,15
5648,1882
5649,821
5650,627
5651,1165
5652,674
5653,1756
5654,745
5655,499
5656,661
5657,286
5658,298
5659,693
5660,20
5661,556
5662,743
5663,402
5664,391
5665,98
5666,556
5667,698
5668,601
5669,62
5670,516
5671,224
5672,698
5673,506
5674,20
5675,365
5676,596
5677,1165
5678,400
5679,2041
5680,745
5681,452
5682,298
5683,365
5684,745
5685,2080
5686,245
5687,647
5688,1064
5689,637
5690,803
5691,198
5692,556
5693,1625
5694,272
5695,89
5696,676
5697,352
5698,245
5699,442
5700,272
5701,499
5702,441
5703,452
5704,753
5705,21
5706,224
5707,499
5708,745
5709,745
5710,425
5711,606
5712,745
5713,1749
5714,352
5715,1606
5716,245
5717,1165
5718,442
5719,1073
5720,409
5721,667
5722,420
5723,28
5724,1645
5725,286
5726,198
5727,1749
5728,382
5729,409
5730,753
5731,224
5732,455
5733,452
5734,709
5735,637
5736,601
5737,198
5738,685
5739,1756
5740,383
5741,572
5742,495
5743,245
5744,637
5745,811
5746,654
5747,224
5748,693
5749,88
5750,572
5751,15
5752,433
5753,495
5754,647
5755,1330
5756,202
5757,382
5758,272
5759,1837
5760,295
5761,1064
5762,1496
5763,572
5764,1151
5765,197
5766,499
5767,699
5768,638
5769,572
5770,712
5771,286
5772,627
5773,1903
5774,566
5775,1064
5776,821
5777,419
5778,630
5779,495
5780,62
5781,373
5782,402
5783,21
5784,475
5785,373
5786,20
5787,382
5788,286
5789,745
5790,365
5791,21
5792,647
5793,1064
5794,556
5795,574
5796,365
5797,637
5798,88
5799,20
5800,647
5801,566
5802,1606
5803,28
5804,425
5805,245
5806,552
5807,165
5808,802
5809,1756
5810,698
5811,391
5812,456
5813,712
5814,700
5815,1561
5816,391
5817,1345
5818,298
5819,286
5820,2041
5821,516
5822,436
5823,647
5824,667
5825,301
5826,745
5827,117
5828,441
5829,587
5830,98
5831,601
5832,98
5833,402
5834,409
5835,638
5836,646
5837,301
5838,648
5839,63
5840,1756
5841,654
5842,298
5843,301
5844,596
5845,1165
5846,20
5847,1895
5848,475
5849,745
5850,452
5851,646
5852,62
5853,580
5854,751
5855,161
5856,1165
5857,285
5858,63
5859,302
5860,381
5861,295
5862,411
5863,1370
5864,661
5865,499
5866,561
5867,1064
5868,654
5869,409
5870,371
5871,85
5872,667
5873,62
5874,391
5875,302
5876,1162
5877,15
5878,685
5879,753
5880,1573
5881,409
5882,21
5883,165
5884,601
5885,627
5886,270
5887,553
5888,20
5889,301
5890,516
5891,712
5892,638
5893,506
5894,637
5895,295
5896,730
5897,654
5898,699
5899,630
5900,742
5901,637
5902,21
5903,298
5904,586
5905,382
5906,637
5907,647
5908,286
5909,2080
5910,475
5911,516
5912,301
5913,1561
5914,709
5915,88
5916,301
5917,693
5918,690
5919,409
5920,572
5921,1073
5922,2080
5923,2070
5924,743
5925,475
5926,63
5927,1342
5928,409
5929,495
5930,580
5931,56
5932,198
5933,456
5934,20
5935,699
5936,1181
5937,475
5938,328
5939,391
5940,566
5941,642
5942,1643
5943,685
5944,416
5945,646
5946,391
5947,382
5948,553
5949,802
5950,456
5951,637
5952,553
5953,580
5954,202
5955,1573
5956,638
5957,272
5958,1625
5959,495
5960,391
5961,425
5962,638
5963,1568
5964,391
5965,198
5966,667
5967,1165
5968,693
5969,382
5970,365
5971,301
5972,566
5973,751
5974,698
5975,556
5976,301
5977,245
5978,396
5979,416
5980,821
5981,295
5982,298
5983,365
5984,272
5985,1625
5986,699
5987,646
5988,224
5989,542
5990,371
5991,302
5992,552
5993,298
5994,197
5995,197
5996,674
5997,1064
5998,98
5999,661
6000,743
6001,642
6002,601
6003,661
6004,88
6005,548
6006,21
6007,553
6008,676
6009,745
6010,1625
6011,373
6012,477
6013,396
6014,62
6015,21
6016,648
6017,88
6018,21
6019,654
6020,286
6021,15
6022,561
6023,409
6024,745
6025,638
6026,601
6027,9
6028,1342
6029,198
6030,1165
6031,644
6032,402
6033,1064
6034,391
6035,700
6036,580
6037,596
6038,295
6039,712
6040,436
6041,516
6042,596
6043,586
6044,286
6045,1035
6046,637
6047,117
6048,98
6049,56
6050,699
6051,1064
6052,1606
6053,1756
6054,285
6055,638
6056,688
6057,1370
6058,85
6059,420
6060,821
6061,654
6062,1496
6063,198
6064,15
6065,301
6066,745
6067,202
6068,699
6069,751
6070,301
6071,20
6072,1162
6073,275
6074,674
6075,1342
6076,596
6077,382
6078,378
6079,642
6080,245
6081,574
6082,539
6083,648
6084,579
6085,751
6086,161
6087,1073
6088,20
6089,2080
6090,601
6091,654
6092,161
6093,685
6094,661
6095,373
6096,20
6097,534
6098,245
6099,685
6100,690
6101,580
6102,477
6103,384
6104,499
6105,382
6106,667
6107,646
6108,693
6109,409
6110,382
6111,738
6112,1606
6113,596
6114,161
6115,2080
6116,2041
6117,117
6118,811
6119,698
6120,1756
6121,821
6122,726
6123,391
6124,821
6125,821
6126,745
6127,373
6128,1606
6129,516
6130,659
6131,62
6132,642
6133,272
6134,402
6135,365
6136,499
6137,328
6138,586
6139,245
6140,20
6141,224
6142,373
6143,270
6144,1064
6145,383
6146,693
6147,1073
6148,62
6149,378
6150,365
6151,298
6152,384
6153,659
6154,383
6155,690
6156,20
6157,1330
6158,642
6159,1162
6160,646
6161,644
6162,63
6163,601
6164,1625
6165,298
6166,286
6167,301
6168,495
6169,20
6170,1749
6171,699
6172,1756
6173,661
6174,654
6175,409
6176,382
6177,420
6178,15
6179,88
6180,15
6181,1330
6182,15
6183,147
6184,298
6185,1073
6186,552
6187,98
6188,596
6189,328
6190,245
6191,441
6192,441
6193,685
6194,539
6195,373
6196,1165
6197,436
6198,539
6199,301
6200,20
6201,285
6202,161
6203,381
6204,516
6205,1496
6206,579
6207,637
6208,1342
6209,516
6210,382
6211,20
6212,286
6213,751
6214,272
6215,661
6216,745
6217,499
6218,685
6219,637
6220,63
6221,402
6222,516
6223,698
6224,646
6225,409
6226,477
6227,751
6228,516
6229,644
6230,441
6231,98
6232,1628
6233,1496
6234,499
6235,1162
6236,638
6237,693
6238,506
6239,659
6240,698
6241,202
6242,1882
6243,285
6244,730
6245,751
6246,117
6247,63
6248,574
6249,286
6250,506
6251,667
6252,685
6253,746
6254,646
6255,63
6256,667
6257,475
6258,301
6259,147
6260,88
6261,1370
6262,477
6263,371
6264,1625
6265,685
6266,673
6267,384
6268,1181
6269,745
6270,396
6271,1837
6272,532
6273,465
6274,367
6275,698
6276,654
6277,1330
6278,495
6279,436
6280,88
6281,275
6282,202
6283,382
6284,298
6285,420
6286,295
6287,654
6288,224
6289,1625
6290,378
6291,1162
6292,301
6293,381
6294,698
6295,1345
6296,566
6297,365
6298,657
6299,301
6300,574
6301,365
6302,726
6303,437
6304,661
6305,746
6306,700
6307,693
6308,1756
6309,553
6310,587
6311,539
6312,642
6313,619
6314,587
6315,161
6316,579
6317,495
6318,730
6319,245
6320,667
6321,1902
6322,452
6323,402
6324,1625
6325,584
6326,821
6327,295
6328,436
6329,1496
6330,751
6331,456
6332,270
6333,644
6334,441
6335,730
6336,352
6337,88
6338,224
6339,88
6340,579
6341,20
6342,553
6343,56
6344,224
6345,499
6346,742
6347,88
6348,580
6349,416
6350,391
6351,98
6352,1064
6353,402
6354,1902
6355,371
6356,654
6357,516
6358,295
6359,436
6360,1370
6361,117
6362,654
6363,301
6364,698
6365,88
6366,693
6367,117
6368,1345
6369,98
6370,642
6371,371
6372,88
6373,1342
6374,742
6375,301
6376,516
6377,420
6378,638
6379,1035
6380,1496
6381,751
6382,245
6383,693
6384,654
6385,9
6386,224
6387,352
6388,198
6389,382
6390,553
6391,650
6392,601
6393,803
6394,698
6395,579
6396,1756
6397,1573
6398,753
6399,553
6400,674
6401,693
6402,654
6403,1903
6404,383
6405,285
6406,20
6407,499
6408,383
6409,63
6410,580
6411,726
6412,553
6413,647
6414,516
6415,224
6416,1903
6417,378
6418,63
6419,654
6420,566
6421,1394
6422,298
6423,654
6424,700
6425,1496
6426,286
6427,726
6428,28
6429,21
6430,699
6431,441
6432,746
6433,688
6434,1342
6435,516
6436,147
6437,301
6438,302
6439,384
6440,1064
6441,1606
6442,1606
6443,574
6444,743
6445,579
6446,425
6447,561
6448,730
6449,382
6450,20
6451,630
6452,442
6453,580
6454,1064
6455,654
6456,475
6457,1438
6458,301
6459,700
6460,661
6461,2080
6462,285
6463,88
6464,20
6465,659
6466,391
6467,245
6468,642
6469,1837
6470,475
6471,20
6472,637
6473,630
6474,667
6475,1064
6476,245
6477,441
6478,433
6479,674
6480,746
6481,402
6482,601
6483,1625
6484,382
6485,644
6486,1966
6487,408
6488,1625
6489,28
6490,1966
6491,1573
6492,506
6493,20
6494,556
6495,579
6496,1162
6497,455
6498,743
6499,391
6500,416
6501,606
6502,409
6503,286
6504,89
6505,561
6506,371
6507,676
6508,328
6509,373
6510,572
6511,2070
6512,637
6513,667
6514,391
6515,301
6516,20
6517,644
6518,738
6519,420
6520,147
6521,1625
6522,441
6523,659
6524,726
6525,574
6526,2041
6527,339
6528,539
6529,88
6530,15
6531,700
6532,654
6533,409
6534,409
6535,811
6536,566
6537,1966
6538,89
6539,1345
6540,516
6541,367
6542,20
6543,647
6544,821
6545,506
6546,1345
6547,1330
6548,637
6549,88
6550,411
6551,699
6552,352
6553,516
6554,745
6555,661
6556,637
6557,302
6558,301
6559,20
6560,1496
6561,690
6562,644
6563,416
6564,661
6565,2080
6566,301
6567,553
6568,523
6569,224
6570,245
6571,580
6572,452
6573,726
6574,698
6575,339
6576,698
6577,1496
6578,475
6579,425
6580,245
6581,20
6582,286
6583,1496
6584,637
6585,2080
6586,743
6587,88
6588,516
6589,301
6590,1241
6591,21
6592,301
6593,553
6594,698
6595,409
6596,74
6597,402
6598,382
6599,646
6600,698
6601,630
6602,396
6603,9
6604,409
6605,698
6606,596
6607,245
6608,580
6609,1628
6610,88
6611,637
6612,1606
6613,1035
6614,21
6615,638
6616,1330
6617,433
6618,1628
6619,1625
6620,1438
6621,88
6622,477
6623,298
6624,21
6625,15
6626,579
6627,730
6628,409
6629,693
6630,301
6631,365
6632,301
6633,647
6634,352
6635,301
6636,477
6637,275
6638,85
6639,1345
6640,62
6641,677
6642,456
6643,477
6644,475
6645,272
6646,197
6647,642
6648,382
6649,506
6650,506
6651,1625
6652,56
6653,15
6654,637
6655,1342
6656,161
6657,619
6658,698
6659,1181
6660,688
6661,1035
6662,198
6663,408
6664,383
6665,693
6666,642
6667,20
6668,301
6669,285
6670,1881
6671,638
6672,642
6673,1165
6674,553
6675,637
6676,495
6677,630
6678,523
6679,579
6680,1877
6681,1330
6682,378
6683,367
6684,62
6685,285
6686,409
6687,637
6688,89
6689,384
6690,556
6691,596
6692,657
6693,98
6694,637
6695,572
6696,693
6697,596
6698,523
6699,601
6700,382
6701,700
6702,499
6703,532
6704,1438
6705,746
6706,654
6707,21
6708,63
6709,699
6710,197
6711,803
6712,302
6713,384
6714,516
6715,161
6716,693
6717,642
6718,411
6719,1625
6720,574
6721,1881
6722,1966
6723,381
6724,409
6725,20
6726,726
6727,391
6728,1895
6729,286
6730,552
6731,373
6732,198
6733,580
6734,409
6735,601
6736,552
6737,301
6738,224
6739,2041
6740,475
6741,637
6742,381
6743,21
6744,62
6745,475
6746,328
6747,197
6748,285
6749,1345
6750,676
6751,371
6752,21
6753,373
6754,465
6755,726
6756,654
6757,572
6758,700
6759,298
6760,416
6761,455
6762,409
6763,89
6764,373
6765,198
6766,161
6767,88
6768,1756
6769,1756
6770,586
6771,712
6772,1496
6773,117
6774,646
6775,1345
6776,384
6777,89
6778,726
6779,286
6780,1064
6781,743
6782,2080
6783,416
6784,202
6785,674
6786,371
6787,85
6788,301
6789,295
6790,647
6791,475
6792,661
6793,709
6794,382
6795,1837
6796,693
6797,553
6798,20
6799,548
6800,726
6801,753
6802,572
6803,301
6804,382
6805,272
6806,1837
6807,516
6808,98
6809,1749
6810,1749
6811,298
6812,224
6813,28
6814,661
6815,391
6816,391
6817,698
6818,391
6819,147
6820,402
6821,382
6822,1345
6823,1573
6824,506
6825,382
6826,1496
6827,688
6828,20
6829,637
6830,286
6831,1625
6832,637
6833,646
6834,638
6835,654
6836,420
6837,654
6838,637
6839,161
6840,638
6841,738
6842,20
6843,1966
6844,202
6845,1625
6846,746
6847,2041
6848,745
6849,654
6850,89
6851,224
6852,1496
6853,2080
6854,667
6855,648
6856,674
6857,596
6858,456
6859,420
6860,642
6861,373
6862,638
6863,63
6864,659
6865,647
6866,197
6867,161
6868,566
6869,381
6870,475
6871,1345
6872,742
6873,688
6874,295
6875,285
6876,698
6877,301
6878,637
6879,553
6880,285
6881,821
6882,1628
6883,542
6884,580
6885,382
6886,654
6887,753
6888,1345
6889,625
6890,475
6891,642
6892,566
6893,596
6894,745
6895,642
6896,730
6897,21
6898,62
6899,712
6900,286
6901,726
6902,88
6903,396
6904,9
6905,743
6906,382
6907,328
6908,724
6909,601
6910,402
6911,373
6912,553
6913,272
6914,676
6915,21
6916,88
6917,738
6918,161
6919,328
6920,21
6921,301
6922,642
6923,416
6924,659
6925,20
6926,1882
6927,21
6928,452
6929,202
6930,1625
6931,572
6932,751
6933,441
6934,516
6935,556
6936,420
6937,638
6938,224
6939,638
6940,637
6941,89
6942,98
6943,642
6944,743
6945,574
6946,661
6947,1035
6948,1749
6949,693
6950,677
6951,436
6952,561
6953,712
6954,654
6955,516
6956,625
6957,561
6958,98
6959,561
6960,637
6961,1625
6962,391
6963,1151
6964,650
6965,637
6966,21
6967,499
6968,272
6969,21
6970,1330
6971,391
6972,295
6973,1756
6974,161
6975,637
6976,579
6977,661
6978,495
6979,224
6980,499
6981,556
6982,753
6983,579
6984,285
6985,441
6986,56
6987,654
6988,1966
6989,62
6990,161
6991,286
6992,63
6993,586
6994,202
6995,1625
6996,580
6997,803
6998,286
6999,587
7000,1756
7001,384
7002,630
7003,1625
7004,638
7005,596
7006,411
7007,724
7008,301
7009,556
7010,745
7011,20
7012,638
7013,198
7014,408
7015,572
7016,646
7017,88
7018,161
7019,566
7020,295
7021,328
7022,98
7023,566
7024,378
7025,1162
7026,21
7027,21
7028,499
7029,1895
7030,753
7031,416
7032,301
7033,396
7034,1151
7035,63
7036,1162
7037,56
7038,712
7039,566
7040,667
7041,1073
7042,646
7043,726
7044,606
7045,224
7046,637
7047,402
7048,580
7049,285
7050,391
7051,416
7052,647
7053,580
7054,539
7055,724
7056,9
7057,298
7058,301
7059,561
7060,381
7061,654
7062,301
7063,161
7064,286
7065,396
7066,56
7067,661
7068,117
7069,245
7070,1165
7071,2041
7072,328
7073,548
7074,161
7075,674
7076,1165
7077,587
7078,161
7079,408
7080,373
7081,368
7082,402
7083,402
7084,436
7085,642
7086,245
7087,286
7088,712
7089,1882
7090,712
7091,20
7092,638
7093,700
7094,700
7095,402
7096,1496
7097,499
7098,1370
7099,382
7100,693
7101,648
7102,821
7103,433
7104,302
7105,295
7106,391
7107,198
7108,637
7109,382
7110,659
7111,98
7112,738
7113,1882
7114,726
7115,425
7116,746
7117,420
7118,298
7119,245
7120,730
7121,286
7122,441
7123,21
7124,198
7125,688
7126,402
7127,117
7128,579
7129,98
7130,301
7131,224
7132,381
7133,20
7134,637
7135,456
7136,1181
7137,1330
7138,382
7139,637
7140,441
7141,1837
7142,9
7143,63
7144,1756
7145,384
7146,20
7147,661
7148,619
7149,295
7150,1749
7151,1165
7152,373
7153,1496
7154,328
7155,584
7156,161
7157,1756
7158,301
7159,20
7160,572
7161,161
7162,1165
7163,2070
7164,1064
7165,365
7166,1370
7167,352
7168,726
7169,647
7170,391
7171,475
7172,21
7173,2041
7174,20
7175,699
7176,352
7177,642
7178,161
7179,779
7180,1073
7181,654
7182,286
7183,1342
7184,596
7185,441
7186,409
7187,391
7188,1241
7189,1749
7190,661
7191,202
7192,2070
7193,821
7194,674
7195,495
7196,1496
7197,726
7198,245
7199,1330
7200,409
7201,89
7202,391
7203,441
7204,646
7205,245
7206,693
7207,1606
7208,198
7209,373
7210,619
7211,534
7212,753
7213,2059
7214,2080
7215,580
7216,198
7217,1756
7218,285
7219,117
7220,647
7221,74
7222,298
7223,224
7224,378
7225,667
7226,441
7227,286
7228,20
7229,495
7230,654
7231,365
7232,21
7233,21
7234,1625
7235,477
7236,198
7237,646
7238,147
7239,475
7240,698
7241,161
7242,654
7243,1370
7244,699
7245,21
7246,693
7247,63
7248,21
7249,63
7250,516
7251,245
7252,1756
7253,21
7254,63
7255,659
7256,642
7257,198
7258,646
7259,561
7260,646
7261,654
7262,1151
7263,378
7264,1561
7265,690
7266,561
7267,699
7268,587
7269,286
7270,301
7271,161
7272,382
7273,298
7274,1342
7275,298
7276,302
7277,384
7278,1625
7279,202
7280,745
7281,477
7282,596
7283,709
7284,1496
7285,659
7286,197
7287,561
7288,88
7289,328
7290,698
7291,1342
7292,391
7293,15
7294,637
7295,245
7296,638
7297,499
7298,56
7299,301
7300,301
7301,572
7302,98
7303,1756
7304,730
7305,561
7306,365
7307,638
7308,646
7309,1837
7310,654
7311,1438
7312,1345
7313,62
7314,553
7315,382
7316,89
7317,285
7318,441
7319,693
7320,779
7321,89
7322,506
7323,667
7324,495
7325,21
7326,161
7327,89
7328,516
7329,437
7330,20
7331,245
7332,352
7333,499
7334,391
7335,425
7336,402
7337,1073
7338,601
7339,88
7340,88
7341,698
7342,1895
7343,198
7344,753
7345,1749
7346,409
7347,441
7348,452
7349,285
7350,89
7351,1902
7352,98
7353,619
7354,28
7355,475
7356,1749
7357,89
7358,596
7359,539
7360,579
7361,298
7362,1165
7363,161
7364,62
7365,88
7366,328
7367,1162
7368,574
7369,286
7370,63
7371,677
7372,690
7373,2080
7374,730
7375,1902
7376,1342
7377,676
7378,475
7379,391
7380,499
7381,1606
7382,88
7383,539
7384,56
7385,98
7386,98
7387,659
7388,20
7389,298
7390,391
7391,441
7392,352
7393,821
7394,285
7395,698
7396,285
7397,365
7398,328
7399,556
7400,751
7401,161
7402,298
7403,433
7404,1756
7405,1165
7406,642
7407,630
7408,1573
7409,553
7410,1165
7411,198
7412,382
7413,63
7414,381
7415,673
7416,596
7417,495
7418,21
7419,441
7420,1749
7421,499
7422,381
7423,724
7424,646
7425,381
7426,1438
7427,659
7428,1330
7429,637
7430,676
7431,442
7432,416
7433,441
7434,1606
7435,499
7436,441
7437,730
7438,712
7439,625
7440,20
7441,28
7442,416
7443,1496
7444,15
7445,365
7446,285
7447,690
7448,647
7449,1877
7450,197
7451,657
7452,1903
7453,62
7454,637
7455,693
7456,1568
7457,638
7458,556
7459,285
7460,580
7461,20
7462,726
7463,685
7464,1573
7465,751
7466,352
7467,619
7468,1073
7469,28
7470,224
7471,285
7472,1035
7473,523
7474,62
7475,88
7476,441
7477,420
7478,1064
7479,821
7480,475
7481,674
7482,506
7483,506
7484,619
7485,637
7486,270
7487,584
7488,285
7489,298
7490,285
7491,606
7492,9
7493,693
7494,409
7495,698
7496,726
7497,1330
7498,516
7499,302
7500,596
7501,285
7502,738
7503,391
7504,383
7505,20
7506,161
7507,648
7508,275
7509,642
7510,619
7511,1438
7512,117
7513,270
7514,646
7515,495
7516,98
7517,1966
7518,556
7519,285
7520,553
7521,499
7522,197
7523,9
7524,637
7525,298
7526,198
7527,295
7528,436
7529,165
7530,161
7531,9
7532,1370
7533,391
7534,275
7535,685
7536,20
7537,198
7538,674
7539,441
7540,371
7541,580
7542,384
7543,441
7544,420
7545,661
7546,556
7547,465
7548,1370
7549,1837
7550,198
7551,20
7552,436
7553,402
7554,286
7555,402
7556,365
7557,456
7558,295
7559,1877
7560,580
7561,1345
7562,85
7563,224
7564,1895
7565,245
7566,523
7567,411
7568,20
7569,20
7570,821
7571,98
7572,1073
7573,677
7574,637
7575,730
7576,572
7577,553
7578,1064
7579,371
7580,677
7581,301
7582,302
7583,685
7584,1756
7585,654
7586,698
7587,382
7588,416
7589,659
7590,712
7591,21
7592,301
7593,499
7594,285
7595,302
7596,779
7597,88
7598,409
7599,637
7600,637
7601,751
7602,693
7603,416
7604,638
7605,161
7606,627
7607,1345
7608,20
7609,198
7610,382
7611,117
7612,441
7613,9
7614,298
7615,638
7616,419
7617,409
7618,539
7619,1342
7620,381
7621,161
7622,301
7623,245
7624,638
7625,85
7626,9
7627,373
7628,352
7629,21
7630,661
7631,601
7632,698
7633,2070
7634,352
7635,202
7636,1756
7637,475
7638,224
7639,553
7640,272
7641,625
7642,441
7643,391
7644,161
7645,245
7646,700
7647,685
7648,391
7649,661
7650,637
7651,574
7652,117
7653,638
7654,516
7655,161
7656,419
7657,642
7658,1628
7659,475
7660,601
7661,698
7662,420
7663,452
7664,523
7665,532
7666,654
7667,89
7668,371
7669,382
7670,676
7671,674
7672,647
7673,698
7674,566
7675,373
7676,506
7677,642
7678,224
7679,667
7680,637
7681,477
7682,411
7683,579
7684,586
7685,161
7686,654
7687,1
7688,667
7689,556
7690,98
7691,74
7692,1881
7693,455
7694,245
7695,644
7696,117
7697,726
7698,161
7699,693
7700,677
7701,63
7702,726
7703,667
7704,198
7705,659
7706,553
7707,638
7708,1881
7709,553
7710,495
7711,245
7712,661
7713,1966
7714,646
7715,630
7716,566
7717,580
7718,625
7719,382
7720,698
7721,700
7722,202
7723,420
7724,1345
7725,382
7726,685
7727,21
7728,709
7729,751
7730,408
7731,1625
7732,745
7733,676
7734,661
7735,742
7736,286
7737,15
7738,436
7739,85
7740,420
7741,301
7742,553
7743,391
7744,396
7745,685
7746,1181
7747,499
7748,548
7749,197
7750,117
7751,286
7752,654
7753,1370
7754,627
7755,753
7756,396
7757,2
7758,821
7759,198
7760,373
7761,1749
7762,712
7763,811
7764,580
7765,298
7766,1345
7767,646
7768,224
7769,286
7770,516
7771,499
7772,245
7773,88
7774,339
7775,753
7776,1966
7777,556
7778,1625
7779,1496
7780,673
7781,441
7782,383
7783,642
7784,698
7785,301
7786,1342
7787,654
7788,516
7789,619
7790,642
7791,286
7792,698
7793,9
7794,619
7795,1151
7796,441
7797,165
7798,298
7799,580
7800,1165
7801,1370
7802,587
7803,730
7804,637
7805,1625
7806,667
7807,561
7808,9
7809,646
7810,548
7811,630
7812,382
7813,516
7814,224
7815,1064
7816,553
7817,295
7818,1342
7819,198
7820,803
7821,539
7822,301
7823,198
7824,726
7825,197
7826,396
7827,542
7828,1181
7829,574
7830,1394
7831,730
7832,382
7833,1132
7834,416
7835,642
7836,441
7837,285
7838,667
7839,402
7840,1882
7841,224
7842,580
7843,3
7844,811
7845,245
7846,523
7847,642
7848,381
7849,21
7850,382
7851,572
7852,1345
7853,2070
7854,302
7855,1165
7856,738
7857,542
7858,381
7859,224
7860,751
7861,1628
7862,596
7863,391
7864,587
7865,373
7866,298
7867,373
7868,661
7869,1882
7870,638
7871,726
7872,378
7873,743
7874,295
7875,698
7876,646
7877,667
7878,224
7879,1625
7880,298
7881,572
7882,165
7883,433
7884,339
7885,416
7886,1342
7887,420
7888,646
7889,1438
7890,1345
7891,596
7892,20
7893,245
7894,452
7895,272
7896,700
7897,619
7898,402
7899,85
7900,1438
7901,202
7902,1370
7903,245
7904,637
7905,580
7906,9
7907,161
7908,328
7909,659
7910,384
7911,382
7912,539
7913,88
7914,1625
7915,117
7916,391
7917,85
7918,352
7919,298
7920,425
7921,441
7922,9
7923,328
7924,712
7925,20
7926,56
7927,630
7928,339
7929,750
7930,381
7931,452
7932,688
7933,642
7934,506
7935,373
7936,647
7937,198
7938,553
7939,676
7940,198
7941,475
7942,730
7943,499
7944,1073
7945,630
7946,659
7947,1438
7948,667
7949,20
7950,202
7951,674
7952,574
7953,9
7954,1496
7955,637
7956,21
7957,646
7958,63
7959,698
7960,587
7961,2041
7962,425
7963,1756
7964,539
7965,382
7966,1181
7967,637
7968,382
7969,285
7970,285
7971,371
7972,661
7973,579
7974,699
7975,402
7976,745
7977,638
7978,441
7979,1625
7980,627
7981,298
7982,391
7983,272
7984,197
7985,15
7986,561
7987,295
7988,298
7989,301
7990,625
7991,20
7992,572
7993,301
7994,402
7995,625
7996,20
7997,301
7998,646
7999,381
8000,88
8001,4
8002,654
8003,506
8004,552
8005,409
8006,286
8007,411
8008,198
8009,88
8010,1606
8011,420
8012,1035
8013,409
8014,743
8015,420
8016,743
8017,661
8018,685
8019,751
8020,661
8021,1756
8022,1749
8023,495
8024,373
8025,298
8026,627
8027,712
8028,402
8029,63
8030,28
8031,286
8032,161
8033,726
8034,751
8035,584
8036,62
8037,745
8038,1162
8039,644
8040,685
8041,20
8042,630
8043,1064
8044,2041
8045,1606
8046,371
8047,202
8048,601
8049,516
8050,553
8051,21
8052,745
8053,295
8054,572
8055,499
8056,475
8057,676
8058,1165
8059,441
8060,85
8061,1064
8062,452
8063,499
8064,416
8065,596
8066,742
8067,298
8068,553
8069,724
8070,688
8071,584
8072,402
8073,566
8074,1628
8075,648
8076,477
8077,452
8078,779
8079,475
8080,224
8081,328
8082,402
8083,1625
8084,285
8085,1606
8086,751
8087,15
8088,197
8089,286
8090,637
8091,580
8092,561
8093,15
8094,495
8095,408
8096,625
8097,1606
8098,9
8099,275
8100,285
8101,295
8102,580
8103,1496
8104,1064
8105,301
8106,693
8107,738
8108,85
8109,147
8110,298
8111,742
8112,2094
8113,751
8114,224
8115,709
8116,574
8117,21
8118,28
8119,661
8120,1181
8121,601
8122,245
8123,475
8124,743
8125,436
8126,301
8127,572
8128,1330
8129,1756
8130,21
8131,1625
8132,117
8133,402
8134,1561
8135,339
8136,637
8137,416
8138,74
8139,499
8140,416
8141,553
8142,638
8143,1756
8144,654
8145,637
8146,566
8147,433
8148,298
8149,745
8150,301
8151,1165
8152,1370
8153,630
8154,286
8155,556
8156,1496
8157,586
8158,725
8159,1342
8160,552
8161,556
8162,89
8163,539
8164,302
8165,1756
8166,1606
8167,654
8168,117
8169,516
8170,1894
8171,751
8172,1903
8173,161
8174,661
8175,661
8176,619
8177,661
8178,391
8179,56
8180,574
8181,411
8182,646
8183,402
8184,642
8185,270
8186,381
8187,20
8188,88
8189,89
8190,161
8191,88
8192,382
8193,117
8194,452
8195,62
8196,382
8197,1342
8198,63
8199,2070
8200,580
8201,21
8202,62
8203,89
8204,1438
8205,596
8206,475
8207,552
8208,117
8209,654
8210,197
8211,580
8212,654
8213,532
8214,661
8215,373
8216,1625
8217,572
8218,396
8219,62
8220,667
8221,20
8222,202
8223,1837
8224,659
8225,1625
8226,690
8227,642
8228,2041
8229,1606
8230,161
8231,272
8232,98
8233,365
8234,20
8235,637
8236,646
8237,552
8238,1345
8239,161
8240,224
8241,98
8242,572
8243,21
8244,580
8245,685
8246,1162
8247,381
8248,1625
8249,224
8250,224
8251,1749
8252,1496
8253,5
8254,224
8255,516
8256,409
8257,63
8258,586
8259,580
8260,98
8261,298
8262,572
8263,753
8264,661
8265,742
8266,301
8267,1645
8268,506
8269,693
8270,698
8271,1749
8272,286
8273,637
8274,85
8275,425
8276,161
8277,637
8278,20
8279,20
8280,411
8281,441
8282,15
8283,644
8284,745
8285,391
8286,646
8287,803
8288,420
8289,371
8290,667
8291,202
8292,382
8293,441
8294,637
8295,751
8296,328
8297,751
8298,442
8299,654
8300,409
8301,365
8302,373
8303,117
8304,1606
8305,20
8306,62
8307,580
8308,1877
8309,499
8310,420
8311,391
8312,1330
8313,295
8314,709
8315,1628
8316,499
8317,637
8318,85
8319,352
8320,1330
8321,298
8322,117
8323,198
8324,542
8325,441
8326,295
8327,637
8328,667
8329,21
8330,661
8331,391
8332,15
8333,709
8334,328
8335,286
8336,667
8337,477
8338,285
8339,646
8340,20
8341,28
8342,698
8343,542
8344,198
8345,198
8346,20
8347,779
8348,821
8349,700
8350,566
8351,674
8352,580
8353,63
8354,198
8355,301
8356,1966
8357,6
8358,1165
8359,62
8360,637
8361,20
8362,2094
8363,637
8364,28
8365,98
8366,420
8367,803
8368,556
8369,270
8370,637
8371,743
8372,596
8373,1756
8374,371
8375,475
8376,802
8377,295
8378,647
8379,1561
8380,726
8381,88
8382,15
8383,161
8384,89
8385,630
8386,198
8387,1165
8388,552
8389,738
8390,420
8391,685
8392,285
8393,409
8394,89
8395,409
8396,661
8397,495
8398,411
8399,1756
8400,601
8401,685
8402,371
8403,539
8404,85
8405,693
8406,646
8407,499
8408,21
8409,556
8410,28
8411,436
8412,601
8413,365
8414,676
8415,1573
8416,561
8417,601
8418,63
8419,409
8420,270
8421,637
8422,1162
8423,1342
8424,117
8425,1181
8426,499
8427,20
8428,1573
8429,286
8430,391
8431,661
8432,272
8433,117
8434,1330
8435,712
8436,409
8437,391
8438,98
8439,224
8440,301
8441,1625
8442,20
8443,642
8444,506
8445,245
8446,20
8447,295
8448,224
8449,161
8450,441
8451,753
8452,88
8453,1181
8454,198
8455,63
8456,553
8457,89
8458,224
8459,506
8460,580
8461,245
8462,499
8463,553
8464,409
8465,1241
8466,441
8467,301
8468,638
8469,371
8470,301
8471,85
8472,63
8473,619
8474,1606
8475,302
8476,753
8477,20
8478,272
8479,224
8480,411
8481,745
8482,700
8483,637
8484,1756
8485,442
8486,88
8487,328
8488,646
8489,637
8490,382
8491,391
8492,328
8493,657
8494,738
8495,272
8496,516
8497,685
8498,642
8499,9
8500,475
8501,685
8502,63
8503,88
8504,637
8505,475
8506,1496
8507,245
8508,579
8509,197
8510,202
8511,586
8512,382
8513,198
8514,580
8515,365
8516,561
8517,198
8518,224
8519,381
8520,637
8521,1073
8522,654
8523,7
8524,373
8525,745
8526,198
8527,619
8528,373
8529,516
8530,396
8531,700
8532,20
8533,371
8534,619
8535,15
8536,382
8537,416
8538,506
8539,2070
8540,20
8541,561
8542,553
8543,726
8544,391
8545,63
8546,1438
8547,1162
8548,9
8549,409
8550,659
8551,88
8552,693
8553,637
8554,2041
8555,1966
8556,580
8557,202
8558,630
8559,586
8560,400
8561,1966
8562,475
8563,506
8564,659
8565,1064
8566,245
8567,275
8568,676
8569,746
8570,690
8571,1073
8572,8
8573,286
8574,373
8575,601
8576,9
8577,1181
8578,552
8579,20
8580,700
8581,28
8582,391
8583,690
8584,561
8585,667
8586,516
8587,552
8588,433
8589,601
8590,383
8591,1370
8592,726
8593,1345
8594,690
8595,391
8596,202
8597,298
8598,637
8599,637
8600,553
8601,286
8602,552
8603,601
8604,637
8605,245
8606,601
8607,224
8608,648
8609,726
8610,295
8611,646
8612,20
8613,753
8614,821
8615,1625
8616,9
8617,285
8618,685
8619,63
8620,572
8621,667
8622,1165
8623,1882
8624,286
8625,63
8626,88
8627,693
8628,88
8629,637
8630,420
8631,419
8632,646
8633,688
8634,779
8635,646
8636,21
8637,298
8638,1749
8639,381
8640,295
8641,298
8642,402
8643,646
8644,442
8645,9
8646,751
8647,584
8648,627
8649,20
8650,373
8651,20
8652,245
8653,648
8654,699
8655,548
8656,328
8657,425
8658,436
8659,584
8660,1342
8661,275
8662,1625
8663,580
8664,821
8665,89
8666,539
8667,646
8668,441
8669,270
8670,20
8671,270
8672,384
8673,745
8674,433
8675,580
8676,693
8677,89
8678,1370
8679,89
8680,442
8681,285
8682,712
8683,700
8684,1966
8685,295
8686,743
8687,286
8688,1342
8689,198
8690,147
8691,700
8692,698
8693,382
8694,301
8695,677
8696,63
8697,637
8698,779
8699,532
8700,654
8701,20
8702,295
8703,391
8704,391
8705,442
8706,1064
8707,646
8708,1345
8709,648
8710,779
8711,738
8712,475
8713,286
8714,378
8715,295
8716,63
8717,245
8718,371
8719,202
8720,779
8721,98
8722,198
8723,1162
8724,21
8725,1573
8726,301
8727,425
8728,198
8729,659
8730,726
8731,245
8732,89
8733,499
8734,286
8735,88
8736,475
8737,371
8738,382
8739,382
8740,1181
8741,516
8742,245
8743,245
8744,1035
8745,601
8746,286
8747,477
8748,198
8749,642
8750,1162
8751,1756
8752,566
8753,1438
8754,726
8755,373
8756,1749
8757,690
8758,674
8759,693
8760,285
8761,1165
8762,579
8763,1345
8764,416
8765,85
8766,596
8767,298
8768,730
8769,743
8770,654
8771,28
8772,270
8773,1573
8774,286
8775,455
8776,667
8777,506
8778,627
8779,245
8780,74
8781,382
8782,400
8783,433
8784,391
8785,197
8786,409
8787,9
8788,667
8789,516
8790,556
8791,409
8792,654
8793,20
8794,301
8795,700
8796,746
8797,433
8798,1749
8799,98
8800,1625
8801,746
8802,1881
8803,98
8804,516
8805,28
8806,596
8807,693
8808,62
8809,381
8810,646
8811,661
8812,1756
8813,539
8814,391
8815,286
8816,596
8817,9
8818,402
8819,373
8820,245
8821,1756
8822,779
8823,20
8824,698
8825,15
8826,161
8827,2080
8828,738
8829,20
8830,477
8831,270
8832,298
8833,647
8834,339
8835,580
8836,245
8837,21
8838,402
8839,2041
8840,88
8841,1181
8842,2080
8843,161
8844,20
8845,224
8846,642
8847,553
8848,2080
8849,542
8850,286
8851,396
8852,659
8853,1165
8854,539
8855,619
8856,1342
8857,556
8858,286
8859,642
8860,644
8861,245
8862,455
8863,302
8864,20
8865,9
8866,85
8867,2041
8868,384
8869,161
8870,161
8871,62
8872,661
8873,74
8874,381
8875,1645
8876,1966
8877,285
8878,391
8879,20
8880,198
8881,286
8882,74
8883,753
8884,644
8885,495
8886,627
8887,553
8888,202
8889,644
8890,371
8891,285
8892,1837
8893,552
8894,224
8895,1902
8896,63
8897,161
8898,1345
8899,646
8900,301
8901,642
8902,596
8903,391
8904,566
8905,584
8906,63
8907,566
8908,373
8909,1966
8910,365
8911,580
8912,373
8913,224
8914,499
8915,667
8916,751
8917,396
8918,10
8919,286
8920,367
8921,378
8922,391
8923,516
8924,745
8925,693
8926,1756
8927,302
8928,88
8929,637
8930,402
8931,442
8932,365
8933,381
8934,516
8935,1162
8936,302
8937,1342
8938,475
8939,88
8940,56
8941,574
8942,74
8943,409
8944,286
8945,117
8946,654
8947,425
8948,699
8949,657
8950,495
8951,638
8952,328
8953,745
8954,298
8955,441
8956,416
8957,452
8958,88
8959,1162
8960,596
8961,745
8962,584
8963,499
8964,642
8965,516
8966,20
8967,98
8968,596
8969,441
8970,98
8971,295
8972,654
8973,712
8974,745
8975,11
8976,637
8977,74
8978,1073
8979,1756
8980,409
8981,302
8982,1162
8983,9
8984,352
8985,642
8986,117
8987,98
8988,62
8989,301
8990,88
8991,667
8992,1749
8993,553
8994,15
8995,742
8996,654
8997,12
8998,301
8999,285
9000,409
9001,690
9002,74
9003,2080
9004,1882
9005,382
9006,499
9007,534
9008,441
9009,396
9010,1496
9011,477
9012,197
9013,409
9014,2080
9015,286
9016,642
9017,646
9018,693
9019,384
9020,1606
9021,693
9022,198
9023,698
9024,523
9025,21
9026,674
9027,198
9028,15
9029,499
9030,637
9031,21
9032,9
9033,654
9034,659
9035,198
9036,245
9037,676
9038,85
9039,384
9040,1756
9041,383
9042,580
9043,456
9044,15
9045,646
9046,523
9047,1881
9048,646
9049,402
9050,56
9051,627
9052,654
9053,821
9054,365
9055,416
9056,391
9057,88
9058,301
9059,647
9060,339
9061,286
9062,420
9063,301
9064,625
9065,506
9066,1496
9067,1749
9068,13
9069,198
9070,693
9071,596
9072,301
9073,586
9074,572
9075,1073
9076,441
9077,286
9078,572
9079,523
9080,197
9081,1837
9082,301
9083,373
9084,441
9085,1573
9086,20
9087,1165
9088,20
9089,378
9090,601
9091,553
9092,661
9093,352
9094,654
9095,1606
9096,391
9097,1165
9098,751
9099,391
9100,62
9101,601
9102,753
9103,654
9104,556
9105,667
9106,674
9107,373
9108,630
9109,738
9110,20
9111,539
9112,198
9113,420
9114,532
9115,750
9116,21
9117,1370
9118,745
9119,224
9120,285
9121,556
9122,295
9123,298
9124,409
9125,1151
9126,272
9127,724
9128,2094
9129,1625
9130,442
9131,161
9132,339
9133,9
9134,20
9135,627
9136,275
9137,1162
9138,441
9139,382
9140,286
9141,673
9142,436
9143,698
9144,301
9145,1345
9146,516
9147,630
9148,2080
9149,495
9150,654
9151,452
9152,642
9153,409
9154,433
9155,661
9156,437
9157,20
9158,654
9159,1561
9160,1496
9161,637
9162,98
9163,738
9164,408
9165,455
9166,661
9167,1165
9168,580
9169,499
9170,391
9171,383
9172,298
9173,642
9174,642
9175,1837
9176,698
9177,667
9178,62
9179,698
9180,441
9181,642
9182,677
9183,202
9184,285
9185,328
9186,539
9187,98
9188,14
9189,561
9190,654
9191,596
9192,1749
9193,743
9194,391
9195,2041
9196,302
9197,74
9198,302
9199,245
9200,1628
9201,161
9202,411
9203,566
9204,382
9205,556
9206,378
9207,584
9208,552
9209,693
9210,516
9211,566
9212,391
9213,596
9214,667
9215,753
9216,198
9217,88
9218,667
9219,619
9220,298
9221,98
9222,224
9223,391
9224,601
9225,301
9226,661
9227,9
9228,62
9229,298
9230,630
9231,63
9232,1628
9233,726
9234,667
9235,89
9236,561
9237,378
9238,751
9239,654
9240,286
9241,637
9242,197
9243,63
9244,1966
9245,441
9246,15
9247,534
9248,456
9249,1342
9250,580
9251,495
9252,2080
9253,738
9254,556
9255,579
9256,202
9257,495
9258,661
9259,416
9260,1966
9261,1073
9262,352
9263,637
9264,661
9265,619
9266,738
9267,584
9268,475
9269,1625
9270,452
9271,1837
9272,452
9273,644
9274,63
9275,197
9276,542
9277,553
9278,580
9279,601
9280,161
9281,1749
9282,1756
9283,98
9284,700
9285,587
9286,1330
9287,298
9288,16
9289,693
9290,198
9291,661
9292,286
9293,441
9294,745
9295,63
9296,15
9297,584
9298,574
9299,365
9300,637
9301,197
9302,328
9303,409
9304,693
9305,411
9306,625
9307,638
9308,1073
9309,441
9310,1625
9311,685
9312,352
9313,659
9314,198
9315,699
9316,425
9317,579
9318,1496
9319,402
9320,495
9321,20
9322,637
9323,391
9324,1370
9325,62
9326,270
9327,62
9328,302
9329,98
9330,730
9331,821
9332,402
9333,539
9334,433
9335,725
9336,328
9337,88
9338,62
9339,384
9340,198
9341,198
9342,202
9343,62
9344,688
9345,88
9346,161
9347,574
9348,821
9349,661
9350,382
9351,85
9352,408
9353,1370
9354,1073
9355,499
9356,371
9357,20
9358,779
9359,301
9360,730
9361,1496
9362,21
9363,516
9364,646
9365,20
9366,286
9367,650
9368,21
9369,661
9370,9
9371,2080
9372,746
9373,642
9374,730
9375,301
9376,495
9377,298
9378,523
9379,436
9380,1625
9381,579
9382,1438
9383,88
9384,301
9385,298
9386,724
9387,63
9388,245
9389,674
9390,198
9391,661
9392,745
9393,409
9394,224
9395,2070
9396,751
9397,726
9398,382
9399,1241
9400,328
9401,2080
9402,659
9403,1966
9404,286
9405,642
9406,88
9407,411
9408,62
9409,286
9410,642
9411,657
9412,198
9413,295
9414,1342
9415,382
9416,270
9417,62
9418,98
9419,456
9420,285
9421,20
9422,373
9423,561
9424,302
9425,285
9426,301
9427,753
9428,566
9429,690
9430,98
9431,1895
9432,197
9433,402
9434,89
9435,709
9436,224
9437,62
9438,580
9439,751
9440,1330
9441,646
9442,580
9443,328
9444,21
9445,712
9446,198
9447,56
9448,700
9449,580
9450,516
9451,642
9452,596
9453,661
9454,301
9455,751
9456,638
9457,285
9458,693
9459,495
9460,584
9461,1625
9462,638
9463,1606
9464,685
9465,441
9466,452
9467,298
9468,409
9469,1756
9470,601
9471,161
9472,378
9473,245
9474,495
9475,301
9476,425
9477,1165
9478,62
9479,20
9480,1370
9481,654
9482,637
9483,552
9484,661
9485,298
9486,499
9487,516
9488,286
9489,74
9490,677
9491,88
9492,1496
9493,301
9494,21
9495,572
9496,285
9497,1573
9498,1903
9499,352
9500,436
9501,245
9502,553
9503,365
9504,17
9505,275
9506,28
9507,667
9508,596
9509,637
9510,1877
9511,523
9512,298
9513,1345
9514,630
9515,117
9516,411
9517,245
9518,28
9519,579
9520,700
9521,2041
9522,688
9523,677
9524,1073
9525,88
9526,579
9527,161
9528,499
9529,698
9530,161
9531,298
9532,20
9533,572
9534,566
9535,751
9536,409
9537,638
9538,352
9539,416
9540,667
9541,89
9542,371
9543,566
9544,1073
9545,2080
9546,117
9547,572
9548,1625
9549,676
9550,89
9551,1496
9552,685
9553,579
9554,742
9555,627
9556,642
9557,561
9558,18
9559,676
9560,699
9561,685
9562,1330
9563,402
9564,743
9565,1496
9566,1162
9567,745
9568,685
9569,302
9570,1165
9571,821
9572,1162
9573,20
9574,647
9575,20
9576,441
9577,1895
9578,506
9579,2041
9580,28
9581,62
9582,2059
9583,9
9584,202
9585,580
9586,499
9587,523
9588,553
9589,202
9590,202
9591,301
9592,20
9593,301
9594,382
9595,637
9596,654
9597,475
9598,726
9599,751
9600,198
9601,574
9602,286
9603,384
9604,74
9605,9
9606,630
9607,685
9608,580
9609,516
9610,1606
9611,693
9612,638
9613,20
9614,646
9615,382
9616,275
9617,441
9618,1064
9619,693
9620,693
9621,442
9622,2080
9623,553
9624,561
9625,647
9626,779
9627,301
9628,441
9629,396
9630,365
9631,587
9632,400
9633,21
9634,1370
9635,685
9636,224
9637,295
9638,441
9639,475
9640,411
9641,556
9642,62
9643,409
9644,475
9645,224
9646,475
9647,619
9648,654
9649,1162
9650,779
9651,516
9652,9
9653,161
9654,753
9655,28
9656,1496
9657,516
9658,56
9659,117
9660,21
9661,295
9662,751
9663,286
9664,724
9665,642
9666,20
9667,688
9668,328
9669,746
9670,586
9671,1370
9672,574
9673,298
9674,523
9675,532
9676,542
9677,416
9678,572
9679,365
9680,295
9681,433
9682,19
9683,648
9684,644
9685,295
9686,384
9687,402
9688,642
9689,690
9690,1345
9691,63
9692,647
9693,286
9694,352
9695,751
9696,619
9697,224
9698,409
9699,285
9700,416
9701,202
9702,698
9703,452
9704,89
9705,685
9706,1342
9707,654
9708,391
9709,745
9710,667
9711,88
9712,286
9713,1606
9714,587
9715,742
9716,803
9717,638
9718,302
9719,433
9720,202
9721,685
9722,285
9723,699
9724,285
9725,98
9726,566
9727,416
9728,596
9729,367
9730,452
9731,20
9732,726
9733,566
9734,198
9735,21
9736,371
9737,667
9738,1438
9739,1561
9740,700
9741,580
9742,523
9743,1882
9744,456
9745,270
9746,1162
9747,21
9748,1342
9749,552
9750,654
9751,22
9752,117
9753,20
9754,411
9755,506
9756,553
9757,62
9758,516
9759,667
9760,197
9761,742
9762,574
9763,420
9764,74
9765,516
9766,572
9767,9
9768,411
9769,637
9770,197
9771,328
9772,89
9773,1606
9774,436
9775,1756
9776,730
9777,1370
9778,352
9779,352
9780,442
9781,667
9782,477
9783,556
9784,367
9785,1561
9786,506
9787,542
9788,117
9789,420
9790,436
9791,383
9792,1330
9793,648
9794,648
9795,23
9796,730
9797,411
9798,644
9799,28
9800,420
9801,202
9802,396
9803,654
9804,539
9805,587
9806,20
9807,88
9808,1877
9809,62
9810,420
9811,21
9812,452
9813,1756
9814,1165
9815,646
9816,552
9817,630
9818,475
9819,553
9820,381
9821,88
9822,499
9823,698
9824,630
9825,1756
9826,56
9827,20
9828,506
9829,619
9830,751
9831,542
9832,667
9833,455
9834,21
9835,821
9836,295
9837,147
9838,371
9839,676
9840,275
9841,699
9842,572
9843,1902
9844,416
9845,657
9846,1370
9847,382
9848,63
9849,751
9850,606
9851,1370
9852,542
9853,1882
9854,619
9855,295
9856,534
9857,1064
9858,436
9859,627
9860,646
9861,382
9862,638
9863,197
9864,161
9865,724
9866,224
9867,548
9868,373
9869,685
9870,272
9871,436
9872,245
9873,9
9874,437
9875,433
9876,601
9877,373
9878,301
9879,566
9880,21
9881,699
9882,436
9883,452
9884,642
9885,1819
9886,409
9887,1561
9888,411
9889,821
9890,452
9891,2094
9892,1573
9893,197
9894,381
9895,553
9896,455
9897,516
9898,534
9899,574
9900,574
9901,352
9902,650
9903,339
9904,408
9905,642
9906,642
9907,1756
9908,147
9909,659
9910,224
9911,371
9912,373
9913,21
9914,465
9915,580
9916,1330
9917,548
9918,676
9919,753
9920,24
9921,1749
9922,638
9923,1902
9924,556
9925,724
9926,1064
9927,442
9928,738
9929,408
9930,646
9931,738
9932,224
9933,63
9934,726
9935,630
9936,98
9937,1496
9938,537
9939,1073
9940,724
9941,2094
9942,382
9943,751
9944,677
9945,821
9946,495
9947,646
9948,642
9949,627
9950,1902
9951,382
9952,637
9953,117
9954,436
9955,673
9956,753
9957,821
9958,245
9959,477
9960,400
9961,1756
9962,298
9963,619
9964,373
9965,619
9966,21
9967,74
9968,638
9969,9
9970,685
9971,371
9972,625
9973,452
9974,88
9975,730
9976,382
9977,654
9978,607
9979,523
9980,1837
9981,382
9982,1073
9983,245
9984,2080
9985,542
9986,1345
9987,352
9988,202
9989,89
9990,637
9991,1370
9992,667
9993,1966
9994,295
9995,548
9996,477
9997,1895
9998,586
9999,2070
10000,580
10001,20
10002,821
10003,637
10004,224
10005,552
10006,1162
10007,746
10008,561
10009,455
10010,477
10011,676
10012,198
10013,566
10014,442
10015,750
10016,725
10017,667
10018,475
10019,89
10020,62
10021,455
10022,499
10023,442
10024,477
10025,441
10026,1895
10027,690
10028,402
10029,534
10030,709
10031,2094
10032,647
10033,365
10034,117
10035,63
10036,301
10037,1438
10038,619
10039,270
10040,553
10041,647
10042,302
10043,198
10044,574
10045,1496
10046,373
10047,409
10048,198
10049,534
10050,753
10051,85
10052,63
10053,298
10054,698
10055,98
10056,2070
10057,352
10058,202
10059,699
10060,441
10061,1606
10062,630
10063,285
10064,580
10065,743
10066,98
10067,391
10068,572
10069,436
10070,2070
10071,690
10072,63
10073,2070
10074,2070
10075,396
10076,1394
10077,9
10078,1345
10079,436
10080,1342
10081,657
10082,295
10083,365
10084,391
10085,63
10086,566
10087,295
10088,391
10089,1573
10090,25
10091,1573
10092,1342
10093,411
10094,712
10095,688
10096,537
10097,441
10098,1837
10099,630
10100,690
10101,561
10102,539
10103,647
10104,690
10105,638
10106,383
10107,391
10108,1902
10109,224
10110,89
10111,725
10112,751
10113,627
10114,396
10115,627
10116,98
10117,2070
10118,534
10119,661
10120,88
10121,667
10122,402
10123,637
10124,378
10125,302
10126,552
10127,627
10128,584
10129,753
10130,452
10131,2070
10132,381
10133,539
10134,224
10135,661
10136,499
10137,1625
10138,416
10139,198
10140,1073
10141,198
10142,286
10143,245
10144,373
10145,1162
10146,630
10147,556
10148,587
10149,1073
10150,396
10151,677
10152,396
10153,523
10154,712
10155,726
10156,619
10157,1035
10158,9
10159,627
10160,553
10161,637
10162,542
10163,409
10164,644
10165,1756
10166,690
10167,1625
10168,383
10169,270
10170,382
10171,62
10172,654
10173,676
10174,548
10175,709
10176,371
10177,659
10178,441
10179,542
10180,20
10181,644
10182,1625
10183,1819
10184,382
10185,1882
10186,1573
10187,245
10188,1628
10189,580
10190,441
10191,436
10192,566
10193,539
10194,673
10195,1882
10196,197
10197,1181
10198,657
10199,286
10200,420
10201,1561
10202,619
10203,272
10204,1966
10205,1345
10206,654
10207,63
10208,328
10209,302
10210,553
10211,1837
10212,352
10213,98
10214,1625
10215,301
10216,391
10217,674
10218,285
10219,1181
10220,382
10221,539
10222,642
10223,690
10224,607
10225,85
10226,402
10227,1902
10228,365
10229,63
10230,637
10231,117
10232,74
10233,642
10234,416
10235,301
10236,1496
10237,1496
10238,738
10239,1895
10240,657
10241,745
10242,88
10243,532
10244,302
10245,286
10246,477
10247,383
10248,642
10249,596
10250,730
10251,1606
10252,556
10253,553
10254,647
10255,1749
10256,1625
10257,2094
10258,378
10259,396
10260,1749
10261,74
10262,580
10263,286
10264,88
10265,552
10266,433
10267,539
10268,637
10269,411
10270,646
10271,475
10272,556
10273,371
10274,1162
10275,580
10276,674
10277,523
10278,302
10279,21
10280,730
10281,452
10282,699
10283,2094
10284,328
10285,648
10286,202
10287,637
10288,352
10289,20
10290,1496
10291,648
10292,561
10293,9
10294,21
10295,391
10296,2041
10297,1162
10298,63
10299,62
10300,286
10301,553
10302,642
10303,373
10304,642
10305,586
10306,396
10307,1330
10308,1073
10309,198
10310,301
10311,534
10312,661
10313,516
10314,659
10315,98
10316,607
10317,396
10318,197
10319,1342
10320,339
10321,420
10322,586
10323,2080
10324,1895
10325,433
10326,117
10327,738
10328,746
10329,441
10330,642
10331,574
10332,2070
10333,9
10334,539
10335,580
10336,630
10337,62
10338,272
10339,298
10340,452
10341,367
10342,1394
10343,198
10344,352
10345,667
10346,441
10347,270
10348,539
10349,659
10350,1165
10351,596
10352,580
10353,475
10354,661
10355,301
10356,642
10357,301
10358,726
10359,642
10360,295
10361,1625
10362,821
10363,1756
10364,295
10365,699
10366,561
10367,596
10368,302
10369,506
10370,89
10371,647
10372,495
10373,534
10374,572
10375,295
10376,638
10377,619
10378,1903
10379,725
10380,1370
10381,745
10382,9
10383,85
10384,1342
10385,408
10386,726
10387,1342
10388,285
10389,698
10390,676
10391,625
10392,637
10393,659
10394,441
10395,286
10396,1241
10397,659
10398,339
10399,539
10400,20
10401,1496
10402,373
10403,566
10404,1342
10405,1819
10406,803
10407,659
10408,495
10409,285
10410,1628
10411,654
10412,712
10413,298
10414,425
10415,402
10416,499
10417,26
10418,402
10419,197
10420,654
10421,753
10422,688
10423,373
10424,676
10425,821
10426,1064
10427,373
10428,452
10429,743
10430,1568
10431,630
10432,730
10433,556
10434,433
10435,685
10436,378
10437,751
10438,746
10439,1438
10440,2080
10441,1882
10442,441
10443,382
10444,1606
10445,638
10446,674
10447,637
10448,408
10449,743
10450,373
10451,9
10452,587
10453,637
10454,161
10455,197
10456,1628
10457,712
10458,352
10459,1568
10460,698
10461,579
10462,553
10463,396
10464,676
10465,674
10466,475
10467,295
10468,552
10469,1882
10470,690
10471,408
10472,746
10473,98
10474,586
10475,371
10476,661
10477,465
10478,441
10479,433
10480,661
10481,1345
10482,700
10483,1966
10484,89
10485,2041
10486,245
10487,198
10488,574
10489,523
10490,654
10491,700
10492,1903
10493,1568
10494,365
10495,301
10496,619
10497,1606
10498,1902
10499,63
10500,202
10501,1330
10502,499
10503,1573
10504,286
10505,561
10506,1151
10507,1573
10508,1073
10509,730
10510,553
10511,1181
10512,1625
10513,20
10514,365
10515,637
10516,301
10517,606
10518,673
10519,637
10520,1756
10521,751
10522,572
10523,745
10524,712
10525,584
10526,384
10527,224
10528,15
10529,63
10530,62
10531,198
10532,391
10533,20
10534,561
10535,601
10536,803
10537,637
10538,534
10539,352
10540,1151
10541,197
10542,202
10543,637
10544,523
10545,15
10546,561
10547,579
10548,425
10549,224
10550,647
10551,638
10552,1966
10553,455
10554,270
10555,2041
10556,21
10557,373
10558,416
10559,302
10560,667
10561,270
10562,537
10563,9
10564,630
10565,746
10566,88
10567,1837
10568,659
10569,402
10570,630
10571,15
10572,245
10573,746
10574,1756
10575,420
10576,726
10577,98
10578,270
10579,539
10580,402
10581,85
10582,699
10583,477
10584,202
10585,495
10586,224
10587,750
10588,654
10589,383
10590,495
10591,1568
10592,606
10593,382
10594,659
10595,409
10596,475
10597,62
10598,98
10599,161
10600,20
10601,648
10602,1561
10603,532
10604,601
10605,1756
10606,436
10607,548
10608,475
10609,552
10610,1165
10611,654
10612,724
10613,1882
10614,1882
10615,601
10616,561
10617,630
10618,572
10619,1165
10620,88
10621,382
10622,420
10623,286
10624,371
10625,272
10626,1573
10627,352
10628,1749
10629,9
10630,630
10631,580
10632,442
10633,15
10634,506
10635,751
10636,117
10637,98
10638,9
10639,506
10640,301
10641,1625
10642,698
10643,456
10644,383
10645,20
10646,420
10647,539
10648,709
10649,724
10650,574
10651,475
10652,693
10653,690
10654,465
10655,298
10656,367
10657,20
10658,147
10659,1330
10660,642
10661,712
10662,1496
10663,667
10664,821
10665,62
10666,627
10667,409
10668,455
10669,365
10670,382
10671,580
10672,198
10673,516
10674,117
10675,1756
10676,441
10677,373
10678,742
10679,198
10680,1162
10681,534
10682,745
10683,506
10684,699
10685,724
10686,1165
10687,408
10688,495
10689,1330
10690,1895
10691,657
10692,584
10693,161
10694,409
10695,62
10696,659
10697,378
10698,365
10699,270
10700,542
10701,98
10702,1756
10703,553
10704,677
10705,409
10706,746
10707,553
10708,409
10709,21
10710,9
10711,587
10712,690
10713,475
10714,433
10715,442
10716,647
10717,452
10718,272
10719,553
10720,1902
10721,391
10722,1342
10723,408
10724,553
10725,584
10726,88
10727,373
10728,693
10729,654
10730,556
10731,674
10732,553
10733,202
10734,699
10735,1438
10736,601
10737,1561
10738,499
10739,674
10740,197
10741,1330
10742,1064
10743,516
10744,352
10745,495
10746,539
10747,553
10748,15
10749,295
10750,572
10751,400
10752,272
10753,245
10754,506
10755,381
10756,647
10757,746
10758,1035
10759,1162
10760,654
10761,400
10762,27
10763,1162
10764,373
10765,89
10766,285
10767,539
10768,601
10769,627
10770,285
10771,642
10772,750
10773,382
10774,561
10775,630
10776,601
10777,552
10778,161
10779,637
10780,198
10781,579
10782,1073
10783,745
10784,1625
10785,441
10786,20
10787,745
10788,147
10789,1394
10790,373
10791,726
10792,661
10793,436
10794,391
10795,1966
10796,1345
10797,455
10798,803
10799,630
10800,659
10801,117
10802,690
10803,584
10804,644
10805,88
10806,1438
10807,381
10808,382
10809,402
10810,21
10811,98
10812,709
10813,580
10814,646
10815,295
10816,2059
10817,648
10818,499
10819,725
10820,28
10821,674
10822,712
10823,516
10824,552
10825,1894
10826,750
10827,712
10828,627
10829,730
10830,1035
10831,1561
10832,382
10833,198
10834,1882
10835,1837
10836,475
10837,532
10838,2070
10839,270
10840,391
10841,1345
10842,1073
10843,673
10844,21
10845,381
10846,328
10847,1342
10848,661
10849,676
10850,677
10851,396
10852,1162
10853,1625
10854,1837
10855,367
10856,456
10857,726
10858,420
10859,619
10860,1162
10861,1749
10862,745
10863,580
10864,28
10865,1966
10866,15
10867,803
10868,373
10869,352
10870,391
10871,224
10872,441
10873,667
10874,117
10875,642
10876,1496
10877,561
10878,302
10879,637
10880,1877
10881,552
10882,1345
10883,650
10884,89
10885,295
10886,574
10887,373
10888,2070
10889,712
10890,420
10891,477
10892,378
10893,607
10894,646
10895,202
10896,539
10897,637
10898,1561
10899,532
10900,301
10901,700
10902,378
10903,89
10904,646
10905,779
10906,63
10907,295
10908,685
10909,1902
10910,667
10911,197
10912,1496
10913,2080
10914,1902
10915,382
10916,1966
10917,56
10918,548
10919,245
10920,674
10921,477
10922,452
10923,637
10924,574
10925,382
10926,198
10927,821
10928,661
10929,62
10930,700
10931,1035
10932,29
10933,295
10934,779
10935,726
10936,1496
10937,1165
10938,408
10939,566
10940,1882
10941,516
10942,534
10943,619
10944,1162
10945,642
10946,1151
10947,408
10948,21
10949,433
10950,420
10951,433
10952,465
10953,637
10954,420
10955,661
10956,21
10957,1902
10958,365
10959,301
10960,542
10961,402
10962,161
10963,630
10964,534
10965,1496
10966,30
10967,1966
10968,552
10969,1895
10970,295
10971,9
10972,654
10973,499
10974,644
10975,455
10976,499
10977,542
10978,9
10979,198
10980,383
10981,523
10982,31
10983,803
10984,580
10985,552
10986,286
10987,574
10988,286
10989,1756
10990,88
10991,693
10992,442
10993,63
10994,1342
10995,295
10996,654
10997,302
10998,753
10999,381
11000,579
11001,436
11002,382
11003,803
11004,433
11005,638
11006,516
11007,572
11008,1181
11009,62
11010,74
11011,285
11012,391
11013,365
11014,383
11015,378
11016,224
11017,1162
11018,420
11019,270
11020,712
11021,638
11022,745
11023,270
11024,402
11025,552
11026,1345
11027,1162
11028,1606
11029,619
11030,495
11031,1345
11032,580
11033,1568
11034,499
11035,654
11036,738
11037,442
11038,516
11039,1966
11040,712
11041,245
11042,548
11043,378
11044,436
11045,647
11046,378
11047,627
11048,685
11049,821
11050,750
11051,2041
11052,803
11053,456
11054,381
11055,1628
11056,637
11057,642
11058,1756
11059,659
11060,726
11061,74
11062,580
11063,552
11064,532
11065,2080
11066,637
11067,750
11068,637
11069,373
11070,619
11071,62
11072,420
11073,1165
11074,619
11075,644
11076,561
11077,328
11078,286
11079,667
11080,630
11081,637
11082,619
11083,637
11084,738
11085,272
11086,601
11087,147
11088,286
11089,224
11090,523
11091,382
11092,644
11093,1895
11094,477
11095,2094
11096,2080
11097,147
11098,548
11099,224
11100,88
11101,625
11102,647
11103,586
11104,606
11105,382
11106,572
11107,596
11108,746
11109,56
11110,373
11111,20
11112,301
11113,586
11114,1496
11115,21
11116,270
11117,409
11118,85
11119,642
11120,373
11121,441
11122,1756
11123,730
11124,98
11125,302
11126,442
11127,606
11128,224
11129,475
11130,202
11131,391
11132,1606
11133,532
11134,455
11135,1606
11136,542
11137,638
11138,21
11139,1966
11140,539
11141,553
11142,381
11143,638
11144,1035
11145,368
11146,286
11147,751
11148,561
11149,1756
11150,365
11151,1645
11152,295
11153,286
11154,730
11155,396
11156,62
11157,561
11158,452
11159,659
11160,647
11161,455
11162,586
11163,646
11164,627
11165,1837
11166,286
11167,677
11168,224
11169,1064
11170,1573
11171,298
11172,542
11173,539
11174,197
11175,98
11176,20
11177,1568
11178,452
11179,456
11180,676
11181,676
11182,712
11183,580
11184,539
11185,63
11186,654
11187,9
11188,9
11189,688
11190,391
11191,659
11192,537
11193,402
11194,700
11195,245
11196,627
11197,637
11198,2041
11199,642
11200,690
11201,224
11202,644
11203,688
11204,442
11205,584
11206,1895
11207,1881
11208,420
11209,690
11210,425
11211,644
11212,659
11213,516
11214,572
11215,1561
11216,477
11217,391
11218,659
11219,2041
11220,295
11221,607
11222,753
11223,352
11224,532
11225,117
11226,738
11227,373
11228,821
11229,62
11230,1241
11231,742
11232,642
11233,553
11234,1837
11235,381
11236,779
11237,1345
11238,371
11239,676
11240,1181
11241,89
11242,542
11243,275
11244,548
11245,409
11246,730
11247,391
11248,1162
11249,637
11250,302
11251,1877
11252,607
11253,56
11254,1894
11255,619
11256,373
11257,391
11258,339
11259,32
11260,580
11261,642
11262,301
11263,1330
11264,245
11265,441
11266,1568
11267,295
11268,98
11269,436
11270,381
11271,539
11272,20
11273,699
11274,373
11275,700
11276,202
11277,1902
11278,383
11279,89
11280,1903
11281,28
11282,688
11283,572
11284,328
11285,619
11286,753
11287,1756
11288,408
11289,1370
11290,516
11291,63
11292,648
11293,89
11294,373
11295,659
11296,726
11297,619
11298,596
11299,580
11300,198
11301,383
11302,499
11303,1330
11304,88
11305,673
11306,644
11307,1561
11308,286
11309,371
11310,224
11311,674
11312,803
11313,654
11314,803
11315,371
11316,644
11317,574
11318,742
11319,98
11320,746
11321,9
11322,198
11323,161
11324,298
11325,161
11326,1162
11327,642
11328,516
11329,98
11330,751
11331,730
11332,745
11333,63
11334,62
11335,352
11336,553
11337,637
11338,302
11339,2080
11340,673
11341,539
11342,465
11343,745
11344,224
11345,1162
11346,383
11347,1342
11348,442
11349,1330
11350,654
11351,295
11352,147
11353,286
11354,455
11355,62
11356,272
11357,1749
11358,753
11359,411
11360,667
11361,1770
11362,539
11363,1895
11364,383
11365,1073
11366,367
11367,436
11368,685
11369,20
11370,1606
11371,553
11372,28
11373,275
11374,685
11375,371
11376,416
11377,1370
11378,98
11379,272
11380,1064
11381,553
11382,475
11383,198
11384,556
11385,1628
11386,572
11387,644
11388,1064
11389,803
11390,1162
11391,712
11392,301
11393,644
11394,1837
11395,441
11396,2070
11397,637
11398,1496
11399,539
11400,28
11401,619
11402,1966
11403,1749
11404,165
11405,1073
11406,1966
11407,63
11408,1345
11409,654
11410,495
11411,646
11412,730
11413,285
11414,659
11415,408
11416,402
11417,420
11418,1606
11419,452
11420,63
11421,506
11422,1881
11423,371
11424,674
11425,539
11426,21
11427,574
11428,1162
11429,542
11430,28
11431,433
11432,396
11433,607
11434,1064
11435,301
11436,33
11437,477
11438,699
11439,455
11440,20
11441,1625
11442,539
11443,117
11444,644
11445,552
11446,654
11447,475
11448,523
11449,21
11450,367
11451,365
11452,373
11453,301
11454,477
11455,2041
11456,1073
11457,601
11458,63
11459,698
11460,642
11461,1882
11462,688
11463,566
11464,548
11465,579
11466,561
11467,1162
11468,742
11469,88
11470,411
11471,779
11472,642
11473,98
11474,556
11475,745
11476,561
11477,532
11478,391
11479,556
11480,1877
11481,698
11482,1756
11483,674
11484,730
11485,743
11486,298
11487,382
11488,674
11489,552
11490,396
11491,821
11492,391
11493,542
11494,391
11495,21
11496,625
11497,516
11498,674
11499,165
11500,709
11501,646
11502,654
11503,726
11504,371
11505,532
11506,409
11507,62
11508,197
11509,425
11510,197
11511,1496
11512,1165
11513,584
11514,302
11515,98
11516,89
11517,302
11518,495
11519,552
11520,738
11521,437
11522,373
11523,1370
11524,667
11525,382
11526,1073
11527,552
11528,802
11529,295
11530,420
11531,1241
11532,1330
11533,63
11534,506
11535,1151
11536,553
11537,20
11538,2080
11539,556
11540,245
11541,420
11542,712
11543,743
11544,580
11545,659
11546,709
11547,436
11548,198
11549,441
11550,371
11551,352
11552,367
11553,553
11554,286
11555,1073
11556,456
11557,198
11558,659
11559,352
11560,98
11561,566
11562,553
11563,1628
11564,270
11565,34
11566,197
11567,1345
11568,698
11569,657
11570,642
11571,161
11572,738
11573,1628
11574,1035
11575,455
11576,408
11577,28
11578,642
11579,98
11580,1370
11581,452
11582,506
11583,1895
11584,433
11585,659
11586,630
11587,21
11588,198
11589,475
11590,2080
11591,553
11592,579
11593,745
11594,688
11595,2041
11596,85
11597,548
11598,352
11599,202
11600,396
11601,638
11602,441
11603,455
11604,383
11605,416
11606,746
11607,89
11608,442
11609,465
11610,654
11611,368
11612,642
11613,245
11614,499
11615,147
11616,698
11617,745
11618,402
11619,539
11620,516
11621,685
11622,442
11623,644
11624,698
11625,117
11626,2080
11627,245
11628,724
11629,753
11630,534
11631,98
11632,270
11633,15
11634,455
11635,674
11636,420
11637,1064
11638,420
11639,382
11640,627
11641,272
11642,1966
11643,1342
11644,74
11645,21
11646,295
11647,2070
11648,1628
11649,1749
11650,499
11651,552
11652,539
11653,698
11654,285
11655,2080
11656,1837
11657,202
11658,647
11659,117
11660,20
11661,580
11662,642
11663,383
11664,803
11665,1496
11666,821
11667,63
11668,298
11669,685
11670,642
11671,456
11672,286
11673,21
11674,20
11675,506
11676,20
11677,1370
11678,698
11679,654
11680,654
11681,690
11682,202
11683,539
11684,574
11685,661
11686,1162
11687,647
11688,371
11689,452
11690,433
11691,580
11692,642
11693,371
11694,20
11695,301
11696,98
11697,657
11698,441
11699,475
11700,506
11701,654
11702,700
11703,601
11704,1035
11705,2041
11706,730
11707,637
11708,630
11709,1881
11710,391
11711,2080
11712,409
11713,2080
11714,1625
11715,339
11716,499
11717,561
11718,88
11719,295
11720,1645
11721,495
11722,561
11723,1073
11724,553
11725,420
11726,456
11727,532
11728,85
11729,1496
11730,285
11731,539
11732,1837
11733,534
11734,1064
11735,89
11736,700
11737,117
11738,724
11739,411
11740,1370
11741,2070
11742,1370
11743,1628
11744,698
11745,88
11746,475
11747,607
11748,88
11749,627
11750,556
11751,198
11752,726
11753,383
11754,646
11755,63
11756,637
11757,637
11758,2094
11759,301
11760,745
11761,373
11762,619
11763,572
11764,712
11765,352
11766,272
11767,15
11768,657
11769,574
11770,396
11771,553
11772,20
11773,9
11774,420
11775,642
11776,15
11777,1241
11778,690
11779,661
11780,648
11781,637
11782,574
11783,2041
11784,1749
11785,587
11786,637
11787,1330
11788,371
11789,371
11790,20
11791,89
11792,506
11793,2070
11794,553
11795,685
11796,373
11797,245
11798,709
11799,685
11800,1345
11801,301
11802,272
11803,534
11804,654
11805,373
11806,1073
11807,117
11808,441
11809,98
11810,627
11811,477
11812,1330
11813,378
11814,365
11815,601
11816,433
11817,425
11818,21
11819,1573
11820,572
11821,161
11822,661
11823,352
11824,1342
11825,475
11826,821
11827,382
11828,1625
11829,419
11830,556
11831,456
11832,20
11833,88
11834,646
11835,712
11836,552
11837,619
11838,726
11839,2059
11840,475
11841,1625
11842,224
11843,442
11844,396
11845,548
11846,74
11847,302
11848,365
11849,1073
11850,1895
11851,420
11852,371
11853,712
11854,352
11855,553
11856,409
11857,574
11858,21
11859,753
11860,606
11861,1756
11862,1345
11863,433
11864,712
11865,1966
11866,436
11867,1496
11868,553
11869,1162
11870,396
11871,712
11872,373
11873,574
11874,646
11875,1882
11876,455
11877,28
11878,452
11879,539
11880,368
11881,1882
11882,1342
11883,2059
11884,197
11885,607
11886,630
11887,685
11888,803
11889,455
11890,606
11891,647
11892,35
11893,606
11894,539
11895,298
11896,627
11897,28
11898,455
11899,601
11900,523
11901,1330
11902,285
11903,433
11904,117
11905,378
11906,601
11907,574
11908,2070
11909,28
11910,198
11911,574
11912,1561
11913,373
11914,198
11915,365
11916,328
11917,391
11918,1573
11919,198
11920,402
11921,1573
11922,1165
11923,690
11924,1165
11925,499
11926,2080
11927,295
11928,1966
11929,619
11930,579
11931,2080
11932,552
11933,224
11934,689
11935,553
11936,534
11937,98
11938,2059
11939,532
11940,674
11941,1902
11942,499
11943,328
11944,1035
11945,566
11946,548
11947,1370
11948,1903
11949,20
11950,352
11951,378
11952,85
11953,452
11954,245
11955,601
11956,539
11957,516
11958,1568
11959,302
11960,98
11961,601
11962,685
11963,709
11964,409
11965,301
11966,627
11967,1756
11968,553
11969,373
11970,625
11971,746
11972,9
11973,98
11974,637
11975,147
11976,21
11977,647
11978,1966
11979,1496
11980,98
11981,117
11982,1756
11983,15
11984,224
11985,245
11986,676
11987,745
11988,642
11989,532
11990,1749
11991,751
11992,437
11993,416
11994,647
11995,821
11996,477
11997,1902
11998,1496
11999,1628
12000,98
12001,601
12002,433
12003,352
12004,98
12005,630
12006,1628
12007,753
12008,673
12009,1628
12010,302
12011,373
12012,644
12013,352
12014,286
12015,408
12016,523
12017,161
12018,197
12019,698
12020,442
12021,1073
12022,698
12023,88
12024,433
12025,295
12026,637
12027,644
12028,74
12029,1895
12030,270
12031,667
12032,285
12033,572
12034,1628
12035,553
12036,373
12037,224
12038,642
12039,272
12040,1628
12041,20
12042,556
12043,295
12044,725
12045,1966
12046,202
12047,147
12048,607
12049,730
12050,523
12051,650
12052,1877
12053,419
12054,98
12055,553
12056,272
12057,352
12058,28
12059,28
12060,295
12061,368
12062,85
12063,698
12064,1625
12065,730
12066,676
12067,693
12068,456
12069,619
12070,224
12071,1342
12072,1625
12073,20
12074,642
12075,28
12076,667
12077,2041
12078,574
12079,272
12080,382
12081,553
12082,1345
12083,328
12084,352
12085,455
12086,532
12087,619
12088,416
12089,638
12090,383
12091,161
12092,88
12093,373
12094,391
12095,712
12096,456
12097,117
12098,542
12099,642
12100,1342
12101,1573
12102,1162
12103,373
12104,2080
12105,224
12106,646
12107,552
12108,419
12109,433
12110,433
12111,301
12112,285
12113,587
12114,455
12115,28
12116,743
12117,566
12118,63
12119,373
12120,690
12121,2080
12122,36
12123,730
12124,738
12125,197
12126,506
12127,601
12128,659
12129,561
12130,1162
12131,516
12132,580
12133,642
12134,21
12135,272
12136,89
12137,654
12138,441
12139,2094
12140,161
12141,37
12142,685
12143,88
12144,475
12145,724
12146,1625
12147,295
12148,534
12149,98
12150,1496
12151,698
12152,642
12153,298
12154,272
12155,1330
12156,1606
12157,20
12158,295
12159,2059
12160,21
12161,619
12162,475
12163,1370
12164,408
12165,1496
12166,1561
12167,455
12168,534
12169,674
12170,627
12171,698
12172,1628
12173,456
12174,38
12175,295
12176,673
12177,654
12178,202
12179,391
12180,1165
12181,1165
12182,455
12183,1330
12184,690
12185,373
12186,690
12187,391
12188,1132
12189,647
12190,475
12191,745
12192,437
12193,2059
12194,98
12195,301
12196,657
12197,661
12198,1330
12199,552
12200,699
12201,15
12202,745
12203,62
12204,1902
12205,561
12206,161
12207,539
12208,1496
12209,539
12210,746
12211,272
12212,646
12213,677
12214,198
12215,539
12216,9
12217,553
12218,88
12219,147
12220,9
12221,339
12222,647
12223,420
12224,1181
12225,647
12226,383
12227,1064
12228,63
12229,1181
12230,1330
12231,596
12232,28
12233,1165
12234,1966
12235,475
12236,1370
12237,21
12238,285
12239,420
12240,381
12241,1241
12242,642
12243,587
12244,698
12245,726
12246,28
12247,753
12248,650
12249,202
12250,601
12251,20
12252,539
12253,286
12254,2080
12255,553
12256,580
12257,821
12258,1606
12259,74
12260,9
12261,475
12262,2041
12263,408
12264,688
12265,285
12266,1330
12267,1966
12268,20
12269,56
12270,452
12271,396
12272,20
12273,644
12274,642
12275,367
12276,452
12277,685
12278,659
12279,1496
12280,566
12281,420
12282,587
12283,1162
12284,1035
12285,553
12286,373
12287,1966
12288,667
12289,371
12290,382
12291,1151
12292,506
12293,383
12294,295
12295,674
12296,161
12297,371
12298,285
12299,301
12300,2080
12301,751
12302,779
12303,286
12304,750
12305,465
12306,637
12307,1902
12308,821
12309,1073
12310,506
12311,743
12312,1573
12313,539
12314,98
12315,371
12316,378
12317,803
12318,709
12319,553
12320,552
12321,698
12322,506
12323,298
12324,726
12325,630
12326,698
12327,627
12328,539
12329,646
12330,365
12331,654
12332,1573
12333,647
12334,1749
12335,601
12336,396
12337,657
12338,371
12339,285
12340,619
12341,1342
12342,712
12343,745
12344,1035
12345,477
12346,821
12347,202
12348,39
12349,699
12350,40
12351,738
12352,384
12353,499
12354,245
12355,28
12356,1573
12357,298
12358,1496
12359,532
12360,391
12361,542
12362,352
12363,726
12364,746
12365,601
12366,725
12367,98
12368,400
12369,198
12370,20
12371,452
12372,539
12373,495
12374,674
12375,625
12376,1064
12377,352
12378,1162
12379,709
12380,698
12381,117
12382,41
12383,433
12384,553
12385,561
12386,301
12387,441
12388,647
12389,42
12390,1881
12391,245
12392,644
12393,373
12394,409
12395,442
12396,1966
12397,402
12398,89
12399,286
12400,661
12401,642
12402,1496
12403,198
12404,685
12405,98
12406,1756
12407,328
12408,63
12409,409
12410,657
12411,753
12412,580
12413,712
12414,295
12415,295
12416,63
12417,667
12418,147
12419,302
12420,539
12421,523
12422,659
12423,98
12424,661
12425,88
12426,561
12427,88
12428,85
12429,506
12430,202
12431,371
12432,1496
12433,285
12434,693
12435,409
12436,455
12437,606
12438,700
12439,688
12440,1345
12441,286
12442,674
12443,286
12444,1902
12445,688
12446,198
12447,553
12448,1819
12449,601
12450,661
12451,1342
12452,1882
12453,627
12454,499
12455,2094
12456,811
12457,1837
12458,1035
12459,630
12460,272
12461,587
12462,15
12463,302
12464,88
12465,730
12466,98
12467,9
12468,373
12469,2080
12470,98
12471,295
12472,654
12473,506
12474,726
12475,1162
12476,371
12477,1837
12478,698
12479,572
12480,726
12481,619
12482,1165
12483,746
12484,285
12485,644
12486,382
12487,302
12488,1628
12489,272
12490,746
12491,724
12492,452
12493,1370
12494,302
12495,425
12496,644
12497,301
12498,745
12499,673
12500,586
12501,416
12502,295
12503,224
12504,433
12505,745
12506,9
12507,1035
12508,98
12509,553
12510,286
12511,619
12512,286
12513,627
12514,674
12515,408
12516,85
12517,690
12518,539
12519,117
12520,532
12521,601
12522,425
12523,1645
12524,1902
12525,1756
12526,596
12527,295
12528,552
12529,647
12530,365
12531,745
12532,62
12533,1573
12534,396
12535,1756
12536,537
12537,455
12538,674
12539,644
12540,726
12541,441
12542,161
12543,1181
12544,1625
12545,601
12546,539
12547,751
12548,644
12549,506
12550,647
12551,574
12552,699
12553,161
12554,298
12555,586
12556,601
12557,285
12558,286
12559,378
12560,586
12561,506
12562,619
12563,647
12564,1966
12565,730
12566,452
12567,534
12568,9
12569,647
12570,197
12571,1902
12572,1966
12573,499
12574,436
12575,391
12576,56
12577,534
12578,391
12579,391
12580,619
12581,371
12582,381
12583,561
12584,751
12585,712
12586,580
12587,1438
12588,433
12589,28
12590,580
12591,803
12592,661
12593,198
12594,1394
12595,693
12596,638
12597,709
12598,295
12599,1064
12600,654
12601,667
12602,1064
12603,441
12604,750
12605,437
12606,452
12607,647
12608,516
12609,475
12610,667
12611,1902
12612,1496
12613,580
12614,499
12615,574
12616,725
12617,245
12618,1165
12619,224
12620,301
12621,295
12622,197
12623,699
12624,245
12625,619
12626,654
12627,495
12628,28
12629,654
12630,202
12631,433
12632,455
12633,1162
12634,647
12635,661
12636,1496
12637,74
12638,699
12639,391
12640,644
12641,1394
12642,9
12643,553
12644,548
12645,409
12646,625
12647,328
12648,224
12649,580
12650,391
12651,161
12652,619
12653,637
12654,1625
12655,637
12656,606
12657,523
12658,690
12659,574
12660,391
12661,1162
12662,365
12663,365
12664,272
12665,224
12666,580
12667,646
12668,725
12669,1561
12670,726
12671,661
12672,295
12673,821
12674,198
12675,441
12676,1162
12677,698
12678,542
12679,391
12680,298
12681,275
12682,1165
12683,572
12684,644
12685,383
12686,2080
12687,88
12688,654
12689,753
12690,539
12691,28
12692,302
12693,523
12694,400
12695,674
12696,455
12697,301
12698,2080
12699,751
12700,667
12701,56
12702,98
12703,197
12704,674
12705,667
12706,62
12707,301
12708,650
12709,1882
12710,726
12711,644
12712,654
12713,408
12714,396
12715,523
12716,2070
12717,499
12718,753
12719,302
12720,1035
12721,561
12722,601
12723,625
12724,384
12725,532
12726,698
12727,644
12728,659
12729,117
12730,650
12731,367
12732,552
12733,245
12734,654
12735,391
12736,365
12737,1881
12738,442
12739,74
12740,272
12741,630
12742,285
12743,566
12744,553
12745,20
12746,495
12747,1162
12748,534
12749,579
12750,712
12751,1561
12752,20
12753,667
12754,738
12755,411
12756,198
12757,709
12758,245
12759,437
12760,98
12761,373
12762,654
12763,743
12764,198
12765,667
12766,62
12767,295
12768,1756
12769,202
12770,295
12771,584
12772,85
12773,539
12774,416
12775,295
12776,62
12777,409
12778,627
12779,745
12780,712
12781,1819
12782,690
12783,272
12784,627
12785,402
12786,9
12787,553
12788,391
12789,420
12790,89
12791,409
12792,456
12793,516
12794,295
12795,378
12796,667
12797,396
12798,382
12799,644
12800,408
12801,74
12802,98
12803,396
12804,539
12805,667
12806,1162
12807,1573
12808,198
12809,1496
12810,1330
12811,224
12812,381
12813,688
12814,712
12815,1064
12816,743
12817,441
12818,85
12819,1895
12820,384
12821,437
12822,371
12823,561
12824,74
12825,730
12826,402
12827,224
12828,433
12829,420
12830,1241
12831,659
12832,699
12833,561
12834,425
12835,674
12836,730
12837,637
12838,534
12839,537
12840,637
12841,245
12842,301
12843,197
12844,1903
12845,85
12846,1881
12847,43
12848,506
12849,676
12850,88
12851,638
12852,2070
12853,690
12854,738
12855,552
12856,20
12857,378
12858,637
12859,1162
12860,730
12861,659
12862,627
12863,552
12864,1073
12865,1749
12866,495
12867,198
12868,402
12869,698
12870,1606
12871,627
12872,646
12873,44
12874,382
12875,425
12876,352
12877,523
12878,647
12879,638
12880,396
12881,1966
12882,2094
12883,1902
12884,753
12885,373
12886,673
12887,646
12888,272
12889,690
12890,1330
12891,2070
12892,62
12893,532
12894,1966
12895,409
12896,301
12897,161
12898,117
12899,730
12900,724
12901,698
12902,9
12903,539
12904,654
12905,63
12906,373
12907,382
12908,619
12909,441
12910,383
12911,1345
12912,1573
12913,803
12914,28
12915,638
12916,197
12917,644
12918,98
12919,1561
12920,753
12921,574
12922,409
12923,272
12924,619
12925,1903
12926,506
12927,742
12928,452
12929,373
12930,1330
12931,1496
12932,673
12933,642
12934,596
12935,245
12936,301
12937,202
12938,738
12939,553
12940,532
12941,674
12942,420
12943,556
12944,63
12945,580
12946,572
12947,2041
12948,751
12949,441
12950,553
12951,74
12952,285
12953,371
12954,1756
12955,726
12956,56
12957,548
12958,436
12959,408
12960,1894
12961,637
12962,1882
12963,580
12964,637
12965,587
12966,523
12967,561
12968,1330
12969,654
12970,607
12971,556
12972,1345
12973,295
12974,644
12975,1573
12976,676
12977,779
12978,20
12979,644
12980,1496
12981,1438
12982,699
12983,654
12984,630
12985,1370
12986,20
12987,1073
12988,224
12989,1496
12990,420
12991,1606
12992,161
12993,495
12994,630
12995,88
12996,373
12997,698
12998,28
12999,301
13000,630
13001,580
13002,1064
13003,688
13004,753
13005,495
13006,724
13007,409
13008,475
13009,378
13010,712
13011,1165
13012,539
13013,654
13014,1756
13015,726
13016,619
13017,197
13018,674
13019,270
13020,1162
13021,245
13022,98
13023,534
13024,661
13025,637
13026,89
13027,803
13028,224
13029,1370
13030,272
13031,63
13032,20
13033,368
13034,642
13035,619
13036,442
13037,245
13038,224
13039,465
13040,677
13041,452
13042,1035
13043,1882
13044,1903
13045,2070
13046,601
13047,693
13048,699
13049,197
13050,1330
13051,373
13052,295
13053,746
13054,21
13055,21
13056,693
13057,1756
13058,730
13059,556
13060,499
13061,654
13062,1496
13063,391
13064,202
13065,420
13066,378
13067,657
13068,382
13069,456
13070,1330
13071,584
13072,475
13073,753
13074,532
13075,627
13076,638
13077,1241
13078,2094
13079,646
13080,725
13081,286
