,partition,vertex
0,100,49465
1,9,49471
2,0,49476
3,27,49477
4,19,49480
5,26,49481
6,66,49483
7,157,49484
8,37,49487
9,9,49488
10,71,49491
11,33,49493
12,34,49495
13,10,49498
14,135,49499
15,148,49503
16,14,49512
17,209,49514
18,55,49518
19,113,49522
20,32,49525
21,24,49528
22,7,49529
23,32,49531
24,101,49532
25,206,49533
26,69,49538
27,82,49541
28,210,49545
29,194,49548
30,77,49550
31,14,49561
32,105,47232
33,74,47239
34,199,47243
35,224,47244
36,165,47245
37,48,47249
38,203,47253
39,149,47254
40,81,47260
41,150,47261
42,185,47263
43,222,47264
44,128,47266
45,105,47268
46,107,47270
47,154,47271
48,200,47275
49,206,47276
50,1,47277
51,111,47292
52,142,47295
53,88,47298
54,209,47299
55,210,47303
56,54,47307
57,38,47311
58,84,47312
59,209,47314
60,74,47315
61,228,47316
62,121,47318
63,184,47321
64,103,13808
65,66,13843
66,209,13846
67,142,13905
68,107,13913
69,126,14016
70,172,14050
71,159,14067
72,106,14072
73,41,14263
74,88,14265
75,108,14271
76,220,14292
77,130,14342
78,200,14346
79,81,14385
80,157,14396
81,15,14517
82,51,14522
83,150,14546
84,149,14561
85,178,14568
86,5,14583
87,136,14624
88,105,14708
89,69,14729
90,100,14839
91,200,14871
92,27,14877
93,15,14905
94,91,14911
95,1,14917
96,113,29740
97,10,29749
98,26,29751
99,104,29757
100,153,29759
101,180,29764
102,204,29765
103,58,29766
104,160,29769
105,158,29771
106,114,29772
107,224,29773
108,6,29776
109,18,29784
110,95,29787
111,161,29792
112,68,29795
113,83,29797
114,32,29813
115,88,29815
116,158,29823
117,17,29831
118,133,29839
119,206,29840
120,135,29841
121,33,29842
122,172,29844
123,33,29845
124,19,29846
125,88,29848
126,184,29849
127,94,29853
128,220,38902
129,74,38905
130,130,38926
131,159,38928
132,25,38938
133,224,38944
134,139,38968
135,174,38977
136,210,38984
137,88,39002
138,130,39011
139,171,39013
140,32,39016
141,42,39017
142,131,39042
143,187,39068
144,114,39084
145,206,39106
146,108,39140
147,110,39195
148,220,39241
149,20,39247
150,26,39252
151,199,39265
152,142,39268
153,130,39290
154,33,39310
155,165,39320
156,185,39329
157,96,39346
158,92,39366
159,220,39380
160,159,571
161,194,614
162,102,640
163,90,645
164,102,681
165,102,727
166,35,783
167,17,819
168,2,910
169,32,913
170,130,1922
171,27,1969
172,114,2194
173,160,2232
174,209,2467
175,101,2807
176,209,2821
177,99,3435
178,108,3456
179,30,3490
180,114,3502
181,185,3512
182,6,3566
183,180,4281
184,88,4309
185,9,4468
186,159,4555
187,28,4958
188,2,4973
189,44,4986
190,114,5006
191,105,5010
192,141,28080
193,154,28098
194,85,28115
195,180,28134
196,145,28137
197,64,28141
198,32,28143
199,221,28191
200,115,28193
201,33,28197
202,114,28218
203,102,28226
204,28,28230
205,32,28232
206,194,28235
207,12,28237
208,141,28240
209,56,28253
210,224,28254
211,78,28262
212,88,28278
213,111,28284
214,29,28294
215,105,28305
216,172,28347
217,0,28356
218,184,28358
219,178,28375
220,189,28387
221,99,28388
222,15,28411
223,30,28418
224,102,11118
225,52,11134
226,74,11143
227,17,11156
228,81,11166
229,54,11170
230,194,11193
231,64,11212
232,178,11220
233,172,11230
234,82,11251
235,107,11267
236,196,11294
237,80,11295
238,92,11296
239,59,11298
240,185,11329
241,194,11334
242,60,11350
243,105,11356
244,177,11361
245,160,11376
246,115,11382
247,10,11383
248,67,11402
249,206,11419
250,221,11432
251,220,11441
252,30,11448
253,126,11480
254,165,11489
255,0,11519
256,139,41767
257,92,41768
258,9,41777
259,14,41785
260,204,41802
261,126,41818
262,159,41833
263,118,41834
264,64,41848
265,35,41868
266,77,41870
267,220,41886
268,194,41899
269,41,41901
270,203,41915
271,46,41921
272,160,41922
273,64,41923
274,96,41933
275,68,41940
276,44,41957
277,184,41959
278,121,41989
279,141,41992
280,159,41996
281,84,42002
282,33,42007
283,132,42027
284,113,42030
285,15,42031
286,30,42040
287,157,42046
288,109,11961
289,149,11990
290,216,11992
291,74,12086
292,45,12129
293,17,12174
294,71,12214
295,188,12258
296,184,12340
297,136,12351
298,148,12358
299,204,12470
300,130,12471
301,159,12492
302,62,12527
303,30,12544
304,10,12595
305,68,12638
306,99,12702
307,74,12725
308,100,12776
309,79,12789
310,94,12802
311,20,12820
312,38,12870
313,69,12873
314,127,12947
315,221,12978
316,136,12982
317,74,12997
318,146,13012
319,99,13044
320,105,18702
321,220,18736
322,185,18745
323,113,18757
324,32,18758
325,165,18809
326,207,18812
327,154,18815
328,77,18822
329,206,18846
330,123,18856
331,66,18865
332,177,18879
333,77,18881
334,224,18894
335,54,18931
336,187,18975
337,68,19009
338,77,19013
339,82,19021
340,35,19051
341,72,19087
342,102,19092
343,210,19104
344,7,19121
345,128,19131
346,67,19142
347,9,19177
348,74,19225
349,96,19240
350,113,19243
351,60,19244
352,141,31798
353,102,31805
354,60,31814
355,55,31828
356,161,31838
357,12,31845
358,14,31848
359,130,31878
360,35,31886
361,224,31901
362,37,31912
363,224,31932
364,1,31938
365,76,31940
366,115,31946
367,74,31997
368,30,32004
369,141,32008
370,68,32012
371,185,32036
372,38,32052
373,199,32057
374,142,32058
375,192,32069
376,57,32101
377,141,32111
378,209,32113
379,185,32133
380,77,32147
381,66,32148
382,76,32163
383,81,32166
384,92,26180
385,53,26182
386,65,26199
387,14,26202
388,222,26203
389,74,26204
390,99,26210
391,110,26220
392,146,26231
393,72,26235
394,159,26236
395,99,26238
396,178,26239
397,88,26242
398,204,26243
399,10,26245
400,118,26246
401,132,26253
402,60,26254
403,15,26262
404,44,26263
405,41,26275
406,39,26277
407,32,26286
408,153,26288
409,150,26291
410,180,26294
411,142,26296
412,159,26299
413,92,26303
414,161,26310
415,209,26312
416,72,39790
417,105,39793
418,88,39796
419,2,39797
420,77,39805
421,206,39807
422,51,39810
423,79,39812
424,14,39814
425,14,39816
426,203,39818
427,159,39823
428,17,39824
429,105,39836
430,209,39838
431,179,39839
432,158,39845
433,19,39846
434,130,39853
435,184,39859
436,126,39876
437,14,39878
438,178,39886
439,18,39889
440,5,39892
441,9,39894
442,66,39895
443,71,39899
444,107,39903
445,114,39907
446,32,39909
447,58,39913
448,108,34317
449,117,34319
450,192,34321
451,178,34326
452,1,34345
453,56,34360
454,30,34366
455,100,34370
456,31,34373
457,5,34410
458,60,34413
459,2,34414
460,92,34422
461,57,34430
462,203,34431
463,77,34433
464,128,34441
465,180,34447
466,199,34450
467,209,34452
468,68,34463
469,17,34469
470,3,34493
471,126,34496
472,34,34499
473,210,34501
474,99,34507
475,209,34509
476,174,34524
477,159,34527
478,43,34541
479,104,34546
480,8,46962
481,99,46963
482,77,46965
483,64,46967
484,103,46968
485,222,46970
486,30,46974
487,35,46975
488,7,46982
489,150,46985
490,224,46987
491,185,46994
492,118,46998
493,35,47000
494,28,47001
495,114,47002
496,184,47006
497,81,47007
498,20,47008
499,158,47011
500,77,47013
501,32,47014
502,114,47015
503,101,47016
504,1,47018
505,52,47019
506,80,47021
507,62,47029
508,52,47031
509,46,47032
510,102,47035
511,209,47040
512,206,28550
513,128,28559
514,125,28560
515,189,28569
516,80,28578
517,135,28580
518,14,28598
519,204,28604
520,85,28620
521,34,28634
522,8,28641
523,184,28663
524,180,28676
525,74,28680
526,104,28696
527,79,28701
528,78,28728
529,80,28730
530,46,28736
531,74,28739
532,172,28740
533,37,28768
534,199,28781
535,149,28784
536,8,28792
537,130,28796
538,74,28797
539,159,28801
540,158,28848
541,92,28874
542,179,28906
543,77,28923
544,209,58118
545,2,58119
546,108,58120
547,94,58121
548,85,58122
549,14,58124
550,146,58127
551,88,58139
552,125,58143
553,149,58145
554,94,58151
555,145,58160
556,92,58161
557,194,58164
558,67,58169
559,118,58175
560,135,58180
561,189,58194
562,187,58206
563,204,58210
564,222,58214
565,49,58219
566,96,58222
567,30,58233
568,146,58236
569,13,58240
570,89,58241
571,3,58245
572,194,58247
573,113,58250
574,158,58253
575,92,58260
576,159,8999
577,7,9028
578,107,9032
579,125,9072
580,204,9074
581,88,9096
582,161,9113
583,71,9114
584,159,9128
585,66,9139
586,40,9160
587,220,9164
588,159,9166
589,224,9170
590,95,9187
591,210,9192
592,56,9213
593,147,9221
594,199,9225
595,108,9226
596,91,9232
597,142,9238
598,66,9248
599,206,9254
600,64,9271
601,32,9272
602,122,9276
603,145,9278
604,185,9283
605,130,9290
606,101,9297
607,102,9322
608,28,29562
609,85,29569
610,101,29574
611,180,29576
612,161,29580
613,20,29583
614,114,29588
615,200,29590
616,42,29597
617,0,29600
618,10,29604
619,41,29607
620,118,29638
621,7,29643
622,63,29645
623,76,29655
624,159,29656
625,159,29657
626,21,29662
627,190,29674
628,30,29677
629,158,29683
630,66,29685
631,103,29692
632,27,29693
633,160,29698
634,103,29699
635,165,29700
636,60,29705
637,68,29733
638,32,29736
639,155,29738
640,32,14175
641,158,14183
642,177,14194
643,93,14199
644,102,14200
645,122,14201
646,150,14209
647,46,14210
648,27,14219
649,76,14230
650,220,14240
651,133,14269
652,174,14276
653,204,14280
654,141,14282
655,147,14291
656,1,14294
657,10,14307
658,149,14309
659,77,14311
660,13,14313
661,7,14319
662,196,14324
663,132,14337
664,57,14343
665,94,14347
666,4,14371
667,107,14375
668,157,14376
669,37,14380
670,126,14382
671,165,14399
672,5,8537
673,92,8539
674,153,8541
675,54,8543
676,46,8544
677,92,8557
678,54,8562
679,194,8563
680,150,8567
681,18,8574
682,159,8579
683,115,8583
684,82,8587
685,95,8590
686,180,8597
687,184,8602
688,178,8612
689,8,8615
690,196,8617
691,88,8618
692,69,8628
693,158,8640
694,0,8657
695,141,8670
696,46,8672
697,44,8675
698,92,8676
699,135,8681
700,32,8682
701,150,8684
702,58,8693
703,130,8697
704,9,42796
705,114,42798
706,44,42805
707,130,42811
708,53,42813
709,102,42814
710,69,42818
711,81,42821
712,74,42823
713,8,42825
714,28,42828
715,96,42834
716,84,42851
717,17,42858
718,0,42865
719,100,42867
720,172,42868
721,139,42873
722,67,42874
723,64,42879
724,162,42885
725,146,42887
726,96,42893
727,179,42894
728,162,42897
729,37,42899
730,76,42901
731,85,42902
732,96,42907
733,80,42925
734,141,42935
735,60,42936
736,74,52875
737,51,52879
738,37,52881
739,9,52886
740,18,52888
741,68,52890
742,190,52892
743,185,52894
744,51,52895
745,159,52896
746,161,52898
747,24,52905
748,206,52907
749,57,52908
750,14,52912
751,180,52914
752,40,52918
753,174,52920
754,178,52921
755,21,52922
756,21,52923
757,34,52929
758,145,52935
759,5,52942
760,74,52944
761,57,52951
762,2,52956
763,113,52961
764,67,52969
765,32,52972
766,96,52975
767,165,52979
768,145,6196
769,56,6204
770,85,6213
771,206,6217
772,115,6234
773,185,6235
774,46,6238
775,145,6271
776,56,6297
777,206,6309
778,15,6324
779,38,6345
780,185,6357
781,67,6379
782,62,6392
783,48,6407
784,159,6412
785,92,6413
786,103,6418
787,58,6419
788,68,6422
789,17,6440
790,180,6441
791,45,6446
792,67,6456
793,146,6474
794,37,6475
795,114,6495
796,32,6499
797,209,6504
798,222,6542
799,41,6543
800,79,13228
801,79,13239
802,221,13248
803,57,13253
804,161,13291
805,12,13312
806,132,13316
807,145,13323
808,84,13328
809,55,13355
810,72,13361
811,85,13369
812,126,13375
813,94,13381
814,178,13392
815,114,13400
816,2,13407
817,159,13411
818,84,13415
819,50,13417
820,5,13419
821,192,13432
822,51,13463
823,51,13464
824,108,13467
825,179,13468
826,2,13472
827,185,13487
828,33,13503
829,14,13506
830,4,13517
831,10,13518
832,171,14021
833,99,14063
834,203,14083
835,160,14094
836,5,14112
837,194,14140
838,58,14168
839,18,14192
840,8,14270
841,72,14284
842,210,14303
843,161,14349
844,27,14388
845,5,14389
846,30,14406
847,161,14415
848,103,14484
849,142,14506
850,146,14515
851,216,14519
852,4,14529
853,118,14574
854,108,14597
855,209,14612
856,100,14621
857,102,14645
858,148,14666
859,58,14720
860,94,14734
861,200,14764
862,8,14772
863,29,14790
864,92,17758
865,64,17761
866,200,17769
867,76,17770
868,220,17786
869,66,17792
870,128,17794
871,107,17800
872,114,17803
873,81,17857
874,189,17866
875,194,17874
876,85,17893
877,100,17927
878,171,17962
879,130,17994
880,1,18005
881,64,18009
882,15,18160
883,68,18173
884,118,18199
885,1,18206
886,141,18223
887,81,18234
888,74,18261
889,48,18283
890,159,18286
891,147,18335
892,81,18344
893,21,18366
894,57,18384
895,128,18386
896,147,49819
897,46,49821
898,129,49823
899,160,49828
900,113,49835
901,26,49842
902,199,49848
903,129,49849
904,127,49855
905,35,49856
906,14,49857
907,209,49862
908,147,49863
909,206,49877
910,220,49881
911,128,49884
912,68,49889
913,180,49891
914,49,49894
915,66,49895
916,150,49903
917,118,49915
918,5,49921
919,32,49923
920,159,49924
921,42,49927
922,105,49933
923,77,49935
924,14,49936
925,113,49939
926,39,49942
927,180,49947
928,107,3343
929,153,3349
930,51,3355
931,228,3367
932,5,3376
933,99,3395
934,32,3401
935,209,3407
936,180,3410
937,2,3418
938,130,3434
939,60,3458
940,0,3459
941,81,3465
942,161,3470
943,172,3500
944,104,3532
945,18,3574
946,102,3575
947,150,3577
948,64,3614
949,206,3620
950,154,3630
951,158,3640
952,1,3645
953,40,3651
954,206,3658
955,153,3679
956,118,3680
957,79,3694
958,185,3695
959,4,3700
960,184,15209
961,84,15229
962,150,15264
963,46,15270
964,41,15271
965,125,15272
966,59,15282
967,32,15300
968,54,15304
969,179,15335
970,41,15338
971,81,15351
972,48,15356
973,95,15393
974,40,15398
975,174,15407
976,222,15438
977,108,15443
978,51,15464
979,149,15469
980,192,15512
981,85,15527
982,105,15629
983,81,15640
984,91,15682
985,158,15704
986,158,15713
987,154,15719
988,149,15747
989,221,15748
990,83,15751
991,85,15779
992,185,44268
993,203,44271
994,145,44289
995,34,44295
996,136,44300
997,221,44328
998,146,44332
999,171,44337
1000,42,44338
1001,58,44369
1002,113,44372
1003,190,44375
1004,113,44390
1005,126,44391
1006,43,44402
1007,196,44430
1008,14,44432
1009,141,44442
1010,35,44461
1011,216,44493
1012,187,44524
1013,62,44543
1014,2,44550
1015,102,44563
1016,62,44577
1017,10,44585
1018,108,44602
1019,87,44605
1020,160,44616
1021,35,44625
1022,103,44627
1023,155,44646
1024,51,23833
1025,154,23876
1026,42,23880
1027,228,23885
1028,129,23897
1029,52,23926
1030,26,23935
1031,26,23953
1032,187,24014
1033,203,24016
1034,68,24022
1035,105,24048
1036,62,24067
1037,81,24076
1038,192,24082
1039,30,24103
1040,30,24137
1041,5,24165
1042,130,24166
1043,81,24179
1044,0,24196
1045,162,24201
1046,51,24239
1047,77,24271
1048,38,24289
1049,204,24324
1050,199,24363
1051,2,24400
1052,29,24421
1053,113,24426
1054,207,24443
1055,69,24508
1056,206,6470
1057,111,6476
1058,14,6477
1059,179,6491
1060,57,6500
1061,189,6503
1062,37,6517
1063,132,6519
1064,159,6530
1065,189,6544
1066,136,6550
1067,131,6585
1068,204,6599
1069,187,6603
1070,17,6612
1071,92,6620
1072,159,6649
1073,199,6650
1074,63,6670
1075,130,6673
1076,161,6676
1077,110,6682
1078,41,6683
1079,4,6686
1080,172,6702
1081,30,6704
1082,174,6723
1083,7,6740
1084,25,6745
1085,92,6746
1086,2,6752
1087,46,6762
1088,121,43218
1089,105,43228
1090,26,43229
1091,107,43232
1092,197,43236
1093,148,43246
1094,27,43253
1095,140,43255
1096,100,43257
1097,206,43262
1098,216,43266
1099,194,43268
1100,28,43272
1101,209,43275
1102,102,43279
1103,5,43284
1104,159,43285
1105,63,43289
1106,184,43290
1107,203,43297
1108,114,43307
1109,35,43308
1110,85,43318
1111,148,43319
1112,220,43324
1113,161,43325
1114,17,43326
1115,220,43328
1116,209,43332
1117,113,43333
1118,150,43346
1119,180,43348
1120,178,30848
1121,133,30849
1122,194,30853
1123,34,30855
1124,159,30857
1125,204,30866
1126,136,30872
1127,199,30880
1128,184,30885
1129,178,30886
1130,0,30888
1131,15,30894
1132,93,30904
1133,93,30910
1134,80,30912
1135,228,30913
1136,160,30929
1137,158,30930
1138,37,30932
1139,154,30936
1140,108,30939
1141,1,30940
1142,101,30944
1143,88,30954
1144,160,30963
1145,45,30964
1146,194,30965
1147,30,30968
1148,32,30969
1149,88,30975
1150,145,30977
1151,180,30983
1152,46,32269
1153,179,32270
1154,43,32272
1155,79,32274
1156,158,32280
1157,46,32287
1158,32,32291
1159,154,32301
1160,199,32306
1161,41,32309
1162,69,32311
1163,88,32324
1164,5,32329
1165,196,32344
1166,160,32345
1167,165,32347
1168,54,32349
1169,114,32352
1170,35,32354
1171,21,32356
1172,68,32357
1173,19,32360
1174,95,32363
1175,102,32367
1176,161,32370
1177,108,32379
1178,92,32380
1179,51,32383
1180,121,32384
1181,42,32389
1182,128,32392
1183,33,32397
1184,46,10563
1185,159,10572
1186,161,10588
1187,46,10598
1188,113,10620
1189,92,10622
1190,82,10628
1191,139,10660
1192,9,10667
1193,64,10675
1194,141,10687
1195,35,10694
1196,77,10734
1197,60,10740
1198,41,10763
1199,57,10768
1200,117,10786
1201,92,10793
1202,194,10794
1203,108,10798
1204,121,10810
1205,180,10816
1206,6,10822
1207,7,10825
1208,161,10836
1209,228,10843
1210,141,10850
1211,95,10867
1212,153,10871
1213,13,10907
1214,121,10916
1215,14,10958
1216,26,19686
1217,0,19695
1218,149,19708
1219,88,19837
1220,59,19883
1221,51,19933
1222,197,20091
1223,149,20120
1224,72,20424
1225,8,20694
1226,108,20732
1227,52,20772
1228,88,21262
1229,130,21405
1230,126,21481
1231,85,21549
1232,43,21614
1233,58,21662
1234,131,21670
1235,58,21838
1236,69,21844
1237,121,21878
1238,135,21883
1239,99,21970
1240,74,22006
1241,114,22013
1242,184,22076
1243,141,22123
1244,206,22356
1245,192,22426
1246,6,22442
1247,185,22450
1248,101,25969
1249,114,25993
1250,128,25995
1251,184,25996
1252,24,26009
1253,154,26015
1254,128,26023
1255,14,26026
1256,46,26029
1257,126,26031
1258,1,26034
1259,185,26037
1260,146,26048
1261,41,26059
1262,54,26063
1263,66,26077
1264,178,26078
1265,104,26087
1266,154,26088
1267,100,26110
1268,159,26113
1269,210,26114
1270,206,26122
1271,103,26133
1272,29,26135
1273,165,26138
1274,58,26147
1275,210,26149
1276,88,26151
1277,96,26153
1278,46,26160
1279,14,26167
1280,5,7647
1281,172,7666
1282,85,7726
1283,32,7734
1284,206,7781
1285,26,7789
1286,103,7794
1287,33,7796
1288,2,7805
1289,37,7824
1290,154,7829
1291,27,7836
1292,68,7850
1293,206,7889
1294,55,7908
1295,125,7925
1296,161,7933
1297,113,7948
1298,105,7973
1299,79,7977
1300,0,8032
1301,66,8034
1302,161,8043
1303,118,8051
1304,66,8090
1305,56,8106
1306,224,8125
1307,155,8193
1308,54,8205
1309,66,8209
1310,159,8216
1311,107,8236
1312,113,30538
1313,53,30541
1314,32,30545
1315,3,30548
1316,110,30549
1317,38,30555
1318,130,30562
1319,142,30563
1320,77,30570
1321,32,30571
1322,200,30575
1323,21,30582
1324,180,30587
1325,174,30592
1326,7,30596
1327,199,30597
1328,102,30601
1329,204,30607
1330,184,30609
1331,220,30613
1332,220,30627
1333,210,30629
1334,159,30632
1335,56,30634
1336,76,30635
1337,68,30640
1338,210,30654
1339,209,30657
1340,44,30660
1341,13,30663
1342,184,30681
1343,111,30682
1344,5,39331
1345,122,39335
1346,66,39340
1347,35,39345
1348,18,39351
1349,34,39354
1350,84,39365
1351,51,39369
1352,62,39373
1353,125,39378
1354,141,39389
1355,207,39394
1356,114,39397
1357,51,39398
1358,91,39400
1359,111,39401
1360,121,39402
1361,199,39404
1362,5,39410
1363,96,39420
1364,210,39425
1365,187,39427
1366,185,39429
1367,52,39430
1368,8,39432
1369,35,39442
1370,46,39445
1371,178,39446
1372,192,39448
1373,100,39463
1374,63,39471
1375,5,39475
1376,17,9444
1377,136,9453
1378,204,9454
1379,107,9457
1380,15,9460
1381,96,9463
1382,37,9469
1383,109,9478
1384,92,9488
1385,121,9489
1386,17,9494
1387,29,9499
1388,160,9502
1389,184,9510
1390,71,9513
1391,81,9518
1392,62,9539
1393,136,9543
1394,58,9547
1395,5,9548
1396,68,9561
1397,32,9562
1398,150,9563
1399,1,9577
1400,136,9581
1401,192,9583
1402,7,9586
1403,148,9591
1404,20,9594
1405,2,9595
1406,127,9604
1407,4,9610
1408,200,34395
1409,48,34400
1410,159,34401
1411,68,34417
1412,204,34419
1413,7,34424
1414,69,34434
1415,178,34438
1416,224,34453
1417,196,34464
1418,192,34476
1419,33,34479
1420,197,34482
1421,10,34494
1422,114,34497
1423,178,34521
1424,221,34525
1425,199,34533
1426,105,34534
1427,68,34539
1428,159,34552
1429,32,34553
1430,158,34555
1431,125,34558
1432,149,34574
1433,197,34581
1434,66,34582
1435,56,34591
1436,204,34593
1437,141,34595
1438,56,34596
1439,12,34603
1440,57,29989
1441,97,29994
1442,72,30000
1443,34,30017
1444,126,30027
1445,220,30029
1446,46,30034
1447,104,30039
1448,153,30043
1449,64,30052
1450,114,30053
1451,222,30055
1452,96,30057
1453,161,30063
1454,117,30068
1455,46,30069
1456,81,30070
1457,184,30072
1458,6,30077
1459,147,30078
1460,158,30080
1461,209,30094
1462,101,30109
1463,179,30115
1464,184,30118
1465,3,30120
1466,56,30121
1467,159,30127
1468,228,30128
1469,62,30136
1470,96,30137
1471,180,30138
1472,108,28256
1473,55,28266
1474,147,28273
1475,113,28274
1476,130,28276
1477,38,28285
1478,56,28287
1479,224,28290
1480,9,28298
1481,46,28303
1482,88,28304
1483,126,28308
1484,34,28314
1485,34,28318
1486,102,28320
1487,206,28321
1488,88,28324
1489,1,28329
1490,209,28346
1491,148,28357
1492,146,28359
1493,41,28363
1494,194,28365
1495,74,28382
1496,58,28391
1497,157,28399
1498,7,28403
1499,7,28405
1500,44,28409
1501,131,28413
1502,57,28424
1503,185,28428
1504,154,38644
1505,148,38649
1506,32,38652
1507,150,38655
1508,7,38656
1509,85,38660
1510,0,38669
1511,7,38670
1512,10,38672
1513,209,38674
1514,94,38677
1515,94,38680
1516,21,38681
1517,32,38686
1518,118,38691
1519,74,38695
1520,189,38697
1521,80,38711
1522,1,38713
1523,149,38717
1524,48,38720
1525,145,38722
1526,9,38726
1527,171,38727
1528,113,38728
1529,141,38729
1530,44,38730
1531,105,38731
1532,1,38733
1533,126,38734
1534,206,38736
1535,228,38740
1536,108,34024
1537,141,34033
1538,1,34039
1539,60,34043
1540,199,34046
1541,228,34047
1542,14,34065
1543,153,34070
1544,184,34074
1545,99,34081
1546,66,34090
1547,58,34101
1548,85,34107
1549,102,34116
1550,33,34123
1551,94,34125
1552,10,34126
1553,101,34131
1554,77,34134
1555,13,34139
1556,135,34149
1557,9,34162
1558,158,34169
1559,76,34171
1560,92,34172
1561,21,34178
1562,103,34181
1563,153,34188
1564,40,34194
1565,63,34205
1566,60,34210
1567,46,34223
1568,51,11921
1569,59,11935
1570,180,11938
1571,130,11973
1572,107,11974
1573,17,11975
1574,39,11979
1575,21,11981
1576,184,12036
1577,100,12039
1578,88,12061
1579,94,12070
1580,44,12071
1581,204,12074
1582,32,12075
1583,161,12082
1584,228,12095
1585,135,12121
1586,102,12130
1587,114,12137
1588,37,12152
1589,185,12159
1590,210,12162
1591,128,12171
1592,32,12172
1593,85,12188
1594,203,12197
1595,8,12217
1596,33,12220
1597,77,12235
1598,3,12240
1599,135,12241
1600,103,27444
1601,125,27452
1602,126,27454
1603,174,27457
1604,128,27460
1605,66,27462
1606,62,27476
1607,220,27495
1608,130,27500
1609,224,27507
1610,72,27513
1611,192,27515
1612,8,27539
1613,5,27543
1614,118,27547
1615,84,27558
1616,118,27560
1617,19,27567
1618,131,27568
1619,157,27569
1620,80,27570
1621,66,27571
1622,224,27576
1623,92,27577
1624,58,27582
1625,111,27584
1626,24,27587
1627,10,27592
1628,113,27595
1629,158,27596
1630,225,27598
1631,199,27616
1632,153,14926
1633,53,14934
1634,6,14960
1635,56,14962
1636,177,14985
1637,180,14988
1638,206,15005
1639,7,15018
1640,15,15026
1641,159,15041
1642,20,15042
1643,15,15048
1644,147,15060
1645,6,15067
1646,51,15069
1647,22,15077
1648,20,15079
1649,81,15086
1650,68,15097
1651,142,15110
1652,141,15134
1653,84,15158
1654,220,15161
1655,31,15168
1656,99,15193
1657,67,15213
1658,220,15235
1659,129,15248
1660,192,15252
1661,209,15257
1662,6,15261
1663,180,15278
1664,100,39754
1665,93,39766
1666,37,39778
1667,132,39782
1668,29,39787
1669,92,39817
1670,108,39819
1671,62,39820
1672,130,39828
1673,60,39835
1674,206,39840
1675,130,39842
1676,35,39855
1677,128,39877
1678,150,39881
1679,92,39897
1680,91,39904
1681,106,39911
1682,6,39959
1683,67,39980
1684,107,39984
1685,81,40016
1686,117,40041
1687,153,40060
1688,228,40079
1689,15,40124
1690,141,40139
1691,149,40143
1692,110,40156
1693,150,40171
1694,71,40178
1695,79,40205
1696,66,44241
1697,79,44245
1698,21,44252
1699,158,44258
1700,81,44259
1701,29,44263
1702,159,44264
1703,68,44275
1704,79,44280
1705,197,44287
1706,30,44288
1707,113,44297
1708,81,44298
1709,228,44303
1710,159,44313
1711,127,44314
1712,20,44318
1713,125,44320
1714,128,44321
1715,52,44323
1716,154,44326
1717,32,44330
1718,135,44333
1719,69,44336
1720,161,44341
1721,9,44346
1722,37,44356
1723,93,44358
1724,149,44361
1725,178,44363
1726,121,44365
1727,7,44367
1728,46,39767
1729,7,39798
1730,60,39831
1731,89,39856
1732,88,39868
1733,46,39888
1734,30,39901
1735,15,39933
1736,31,39937
1737,130,39941
1738,123,39942
1739,0,39967
1740,79,39975
1741,0,40011
1742,11,40023
1743,85,40170
1744,159,40219
1745,74,40227
1746,30,40267
1747,64,40329
1748,180,40333
1749,139,40336
1750,49,40411
1751,148,40419
1752,145,40436
1753,33,40440
1754,224,40453
1755,107,40472
1756,125,40528
1757,196,40561
1758,114,40563
1759,109,40569
1760,7,21957
1761,27,22126
1762,107,22129
1763,32,22165
1764,72,22383
1765,79,22520
1766,192,23017
1767,122,23137
1768,114,23386
1769,69,23988
1770,130,24069
1771,206,26081
1772,96,26502
1773,178,31000
1774,184,32770
1775,51,32815
1776,92,32946
1777,77,33537
1778,10,33918
1779,56,34705
1780,2,34863
1781,118,34891
1782,66,34986
1783,34,35215
1784,92,35503
1785,64,47
1786,68,52
1787,32,66
1788,108,79
1789,1,115
1790,148,154
1791,51,166
1792,68,8409
1793,41,8485
1794,58,8497
1795,41,8533
1796,33,8545
1797,68,8561
1798,87,8601
1799,65,8613
1800,130,8645
1801,114,8658
1802,130,8679
1803,69,8680
1804,99,8704
1805,80,8719
1806,132,8748
1807,15,8765
1808,37,8786
1809,78,8796
1810,81,8824
1811,209,8833
1812,26,8882
1813,85,9090
1814,33,9105
1815,49,9144
1816,52,9163
1817,189,9171
1818,160,9172
1819,7,9186
1820,23,9193
1821,194,9200
1822,179,9207
1823,7,9231
1824,52,23261
1825,209,23264
1826,21,23290
1827,64,23307
1828,145,23318
1829,132,23330
1830,150,23331
1831,22,23334
1832,110,23338
1833,89,23340
1834,32,23354
1835,32,23383
1836,94,23388
1837,105,23394
1838,158,23404
1839,22,23408
1840,210,23448
1841,150,23455
1842,77,23479
1843,3,23482
1844,179,23484
1845,56,23492
1846,56,23494
1847,113,23503
1848,206,23509
1849,54,23512
1850,220,23514
1851,146,23515
1852,2,23517
1853,146,23527
1854,221,23537
1855,46,23543
1856,147,14410
1857,7,14421
1858,108,14424
1859,126,14430
1860,228,14434
1861,68,14435
1862,24,14446
1863,32,14473
1864,200,14490
1865,96,14498
1866,81,14502
1867,74,14532
1868,104,14538
1869,150,14542
1870,100,14558
1871,79,14591
1872,153,14611
1873,153,14631
1874,150,14638
1875,123,14660
1876,159,14700
1877,158,14705
1878,84,14712
1879,128,14788
1880,146,14789
1881,0,14805
1882,30,14808
1883,153,14818
1884,158,14836
1885,194,14855
1886,27,14869
1887,224,14873
1888,90,15558
1889,103,15563
1890,21,15591
1891,172,15592
1892,32,15606
1893,155,15609
1894,44,15614
1895,149,15637
1896,117,15647
1897,131,15660
1898,228,15662
1899,210,15679
1900,9,15685
1901,109,15688
1902,210,15692
1903,67,15722
1904,149,15739
1905,85,15743
1906,220,15749
1907,108,15752
1908,131,15769
1909,46,15785
1910,10,15786
1911,4,15798
1912,130,15818
1913,210,15822
1914,113,15844
1915,146,15852
1916,80,15858
1917,1,15860
1918,35,15868
1919,96,15872
1920,95,2151
1921,111,2350
1922,104,2405
1923,159,2439
1924,158,2472
1925,180,2556
1926,150,3340
1927,8,3371
1928,179,3427
1929,67,3440
1930,32,3466
1931,107,3486
1932,199,4946
1933,118,4965
1934,66,4999
1935,108,5000
1936,9,5026
1937,216,5031
1938,32,5470
1939,58,5900
1940,120,5920
1941,60,5931
1942,5,6070
1943,206,6090
1944,9,6369
1945,206,6514
1946,192,7065
1947,145,7136
1948,41,7142
1949,76,7191
1950,228,7194
1951,148,7197
1952,69,51573
1953,42,51575
1954,207,51576
1955,68,51578
1956,4,51579
1957,220,51580
1958,14,51581
1959,7,51582
1960,197,51583
1961,194,51585
1962,37,51590
1963,67,51592
1964,33,51593
1965,197,51595
1966,204,51601
1967,113,51602
1968,9,51607
1969,209,51608
1970,14,51611
1971,27,51613
1972,17,51614
1973,69,51617
1974,54,51618
1975,199,51622
1976,58,51628
1977,189,51641
1978,159,51642
1979,141,51644
1980,61,51647
1981,141,51648
1982,67,51656
1983,179,51664
1984,146,59351
1985,85,59352
1986,42,59353
1987,44,59354
1988,44,59355
1989,95,59356
1990,109,59357
1991,178,59358
1992,171,59359
1993,88,59360
1994,130,59361
1995,159,59362
1996,0,59363
1997,197,59364
1998,72,59366
1999,46,59367
2000,92,59369
2001,28,59374
2002,157,59375
2003,216,59376
2004,3,59377
2005,52,59378
2006,32,59379
2007,145,59380
2008,20,59381
2009,4,59382
2010,187,59383
2011,35,59384
2012,53,59385
2013,220,59387
2014,5,59389
2015,38,59390
2016,88,54005
2017,174,54006
2018,34,54007
2019,18,54008
2020,99,54013
2021,158,54014
2022,108,54015
2023,178,54020
2024,67,54023
2025,114,54026
2026,207,54028
2027,49,54030
2028,132,54031
2029,72,54033
2030,62,54037
2031,41,54038
2032,92,54052
2033,34,54053
2034,192,54057
2035,141,54059
2036,200,54062
2037,46,54064
2038,159,54066
2039,189,54068
2040,125,54074
2041,109,54077
2042,37,54082
2043,174,54086
2044,13,54088
2045,62,54089
2046,199,54091
2047,37,54092
2048,94,22601
2049,147,22622
2050,171,22642
2051,38,22644
2052,69,22649
2053,148,22680
2054,147,22701
2055,153,22735
2056,69,22738
2057,64,22756
2058,110,22761
2059,158,22824
2060,79,22887
2061,92,22892
2062,62,22913
2063,42,22992
2064,102,23031
2065,145,23032
2066,179,23049
2067,210,23151
2068,159,23248
2069,204,23349
2070,228,23380
2071,187,23421
2072,23,23459
2073,122,23501
2074,194,23592
2075,216,23677
2076,27,23741
2077,178,23922
2078,5,24070
2079,209,24267
2080,148,26073
2081,31,26074
2082,92,26095
2083,99,26116
2084,155,26118
2085,46,26124
2086,118,26130
2087,67,26164
2088,19,26165
2089,99,26174
2090,32,26208
2091,180,26209
2092,64,26212
2093,180,26247
2094,128,26255
2095,84,26261
2096,10,26265
2097,26,26268
2098,149,26281
2099,161,26319
2100,206,26330
2101,9,26332
2102,68,26335
2103,84,26339
2104,5,26380
2105,74,26382
2106,179,26383
2107,15,26393
2108,130,26402
2109,130,26409
2110,102,26422
2111,43,26433
2112,196,2366
2113,74,2384
2114,157,2391
2115,8,2420
2116,51,2430
2117,145,2452
2118,7,2455
2119,92,2458
2120,46,2466
2121,76,2473
2122,158,2487
2123,107,2492
2124,7,2495
2125,102,2505
2126,192,2523
2127,158,2539
2128,46,2545
2129,62,2550
2130,153,2560
2131,42,2565
2132,51,2570
2133,76,2572
2134,162,2582
2135,105,2584
2136,29,2602
2137,26,2621
2138,114,2651
2139,93,2653
2140,149,2675
2141,46,2680
2142,60,2693
2143,59,2707
2144,184,14921
2145,78,14932
2146,57,14937
2147,159,14938
2148,69,14954
2149,174,14956
2150,142,14969
2151,204,14981
2152,108,15000
2153,128,15019
2154,222,15043
2155,228,15058
2156,64,15065
2157,154,15081
2158,85,15091
2159,224,15102
2160,7,15119
2161,159,15127
2162,160,15137
2163,72,15138
2164,7,15148
2165,158,15152
2166,200,15163
2167,77,15177
2168,184,15180
2169,4,15186
2170,28,15189
2171,114,15190
2172,35,15230
2173,11,15238
2174,136,15240
2175,157,15241
2176,80,45267
2177,145,45272
2178,206,45279
2179,158,45283
2180,5,45285
2181,88,45292
2182,76,45295
2183,7,45301
2184,83,45314
2185,13,45317
2186,142,45330
2187,114,45353
2188,6,45355
2189,153,45376
2190,106,45388
2191,49,45391
2192,35,45400
2193,88,45407
2194,91,45418
2195,7,45419
2196,28,45435
2197,42,45439
2198,101,45452
2199,17,45458
2200,206,45474
2201,77,45478
2202,5,45489
2203,79,45490
2204,0,45491
2205,58,45500
2206,117,45517
2207,34,45519
2208,199,35351
2209,197,35368
2210,68,35376
2211,76,35390
2212,206,35413
2213,26,35501
2214,131,35552
2215,62,35575
2216,118,35576
2217,106,35583
2218,60,35605
2219,7,35609
2220,179,35615
2221,44,35632
2222,171,35653
2223,196,35662
2224,150,35715
2225,52,35758
2226,158,35826
2227,27,35843
2228,204,35876
2229,158,35909
2230,132,35948
2231,159,36013
2232,94,36014
2233,26,36060
2234,9,36072
2235,142,36094
2236,17,36182
2237,24,36232
2238,130,36262
2239,149,36266
2240,185,2398
2241,148,2407
2242,115,2431
2243,171,2444
2244,96,2468
2245,189,2547
2246,41,2552
2247,102,2652
2248,66,2660
2249,150,2725
2250,56,2755
2251,40,2776
2252,99,2785
2253,84,2803
2254,159,2812
2255,1,2824
2256,154,2831
2257,222,2862
2258,68,3081
2259,58,3142
2260,158,3185
2261,39,3200
2262,102,3201
2263,81,3265
2264,20,3278
2265,51,3308
2266,32,3345
2267,128,3372
2268,17,3421
2269,46,3429
2270,2,3450
2271,27,3452
2272,45,13176
2273,154,13234
2274,136,13258
2275,154,13286
2276,83,13287
2277,48,13331
2278,135,13429
2279,141,13548
2280,158,13563
2281,69,13606
2282,2,13635
2283,220,13642
2284,21,13690
2285,35,13691
2286,74,13698
2287,200,13748
2288,18,13757
2289,34,13771
2290,85,13801
2291,206,13818
2292,82,13845
2293,21,13871
2294,85,13879
2295,148,13885
2296,149,13903
2297,154,13946
2298,209,13958
2299,36,13974
2300,192,13980
2301,94,13981
2302,128,13987
2303,106,14015
2304,115,50235
2305,178,50237
2306,100,50245
2307,141,50246
2308,106,50247
2309,216,50249
2310,199,50251
2311,187,50255
2312,9,50257
2313,9,50269
2314,76,50274
2315,102,50276
2316,200,50279
2317,204,50280
2318,126,50285
2319,14,50292
2320,39,50294
2321,210,50295
2322,92,50303
2323,13,50304
2324,159,50307
2325,141,50309
2326,92,50312
2327,56,50314
2328,100,50315
2329,200,50320
2330,13,50321
2331,29,50326
2332,179,50331
2333,11,50332
2334,165,50340
2335,136,50345
2336,203,27822
2337,30,27833
2338,52,27855
2339,94,27862
2340,78,27867
2341,74,27879
2342,54,27896
2343,64,27909
2344,64,27932
2345,58,27980
2346,8,27985
2347,51,27996
2348,180,28007
2349,114,28024
2350,158,28028
2351,192,28042
2352,34,28047
2353,192,28054
2354,185,28063
2355,8,28064
2356,17,28073
2357,91,28087
2358,35,28100
2359,2,28104
2360,52,28114
2361,206,28117
2362,146,28129
2363,115,28149
2364,10,28163
2365,7,28172
2366,79,28175
2367,85,28180
2368,102,35820
2369,29,35829
2370,130,35837
2371,141,35846
2372,161,35849
2373,146,35852
2374,74,35865
2375,165,35868
2376,179,35875
2377,84,35878
2378,15,35933
2379,154,35935
2380,190,35940
2381,154,35941
2382,52,35943
2383,102,35965
2384,10,35969
2385,147,35983
2386,103,35992
2387,60,35996
2388,192,36002
2389,7,36009
2390,80,36016
2391,48,36061
2392,69,36066
2393,13,36068
2394,220,36073
2395,85,36092
2396,185,36099
2397,41,36115
2398,102,36120
2399,1,36125
2400,63,25099
2401,184,25100
2402,165,25107
2403,85,25112
2404,126,25121
2405,145,25128
2406,130,25138
2407,87,25148
2408,147,25154
2409,34,25155
2410,99,25168
2411,172,25170
2412,30,25171
2413,89,25174
2414,98,25175
2415,108,25193
2416,204,25202
2417,190,25204
2418,67,25207
2419,128,25209
2420,148,25210
2421,74,25228
2422,184,25241
2423,35,25242
2424,174,25245
2425,67,25247
2426,108,25258
2427,126,25265
2428,222,25273
2429,109,25280
2430,12,25288
2431,93,25291
2432,145,17646
2433,0,17901
2434,17,17987
2435,24,18047
2436,94,18170
2437,114,18535
2438,20,19267
2439,185,19958
2440,81,20250
2441,150,20518
2442,51,20824
2443,1,20868
2444,162,21075
2445,104,21273
2446,115,22531
2447,126,23986
2448,69,24202
2449,32,24504
2450,113,25167
2451,100,26741
2452,9,32745
2453,69,32788
2454,128,32967
2455,199,33678
2456,33,33744
2457,132,34875
2458,93,36103
2459,42,37667
2460,122,41368
2461,130,92
2462,27,117
2463,29,133
2464,62,9117
2465,196,9118
2466,68,9122
2467,200,9132
2468,203,9133
2469,158,9148
2470,8,9155
2471,21,9167
2472,8,9176
2473,10,9188
2474,14,9190
2475,206,9196
2476,204,9201
2477,100,9210
2478,69,9212
2479,92,9215
2480,33,9219
2481,180,9227
2482,185,9230
2483,185,9237
2484,92,9240
2485,194,9241
2486,1,9242
2487,160,9246
2488,132,9252
2489,17,9258
2490,179,9265
2491,4,9269
2492,41,9282
2493,146,9286
2494,105,9287
2495,103,9291
2496,185,30896
2497,51,30897
2498,139,30907
2499,203,30911
2500,92,30915
2501,153,30916
2502,104,30918
2503,159,30923
2504,194,30925
2505,150,30928
2506,141,30933
2507,127,30945
2508,9,30951
2509,92,30957
2510,92,30962
2511,96,30967
2512,107,30970
2513,38,30978
2514,148,30981
2515,58,30987
2516,131,30993
2517,190,31001
2518,187,31002
2519,100,31024
2520,5,31025
2521,17,31026
2522,158,31029
2523,113,31038
2524,99,31041
2525,59,31043
2526,7,31044
2527,55,31049
2528,135,52233
2529,37,52239
2530,162,52240
2531,216,52241
2532,83,52243
2533,41,52244
2534,96,52245
2535,88,52246
2536,68,52249
2537,113,52253
2538,139,52254
2539,27,52258
2540,57,52265
2541,46,52268
2542,207,52272
2543,105,52275
2544,1,52286
2545,51,52295
2546,88,52296
2547,44,52300
2548,135,52307
2549,35,52308
2550,117,52311
2551,184,52319
2552,122,52322
2553,224,52323
2554,154,52326
2555,38,52327
2556,222,52328
2557,80,52333
2558,148,52336
2559,15,52338
2560,53,35920
2561,58,35927
2562,165,35934
2563,110,35937
2564,5,35944
2565,5,35954
2566,136,35962
2567,15,35976
2568,34,35980
2569,153,35982
2570,141,36021
2571,52,36025
2572,2,36041
2573,159,36042
2574,56,36053
2575,108,36057
2576,52,36069
2577,128,36081
2578,35,36083
2579,192,36088
2580,192,36091
2581,26,36105
2582,77,36108
2583,136,36117
2584,17,36119
2585,32,36128
2586,99,36130
2587,9,36156
2588,110,36160
2589,1,36169
2590,131,36177
2591,113,36183
2592,52,41296
2593,113,41297
2594,9,41327
2595,178,41331
2596,29,41334
2597,185,41336
2598,46,41348
2599,102,41351
2600,99,41357
2601,67,41364
2602,132,41365
2603,92,41377
2604,157,41396
2605,1,41397
2606,210,41419
2607,30,41428
2608,199,41434
2609,159,41438
2610,184,41444
2611,66,41452
2612,179,41468
2613,131,41473
2614,64,41474
2615,159,41491
2616,158,41496
2617,159,41497
2618,222,41503
2619,102,41504
2620,95,41544
2621,46,41558
2622,13,41567
2623,117,41572
2624,115,1193
2625,67,1217
2626,161,1237
2627,29,1282
2628,7,1336
2629,132,1371
2630,81,1374
2631,185,1386
2632,108,1389
2633,108,1427
2634,58,1450
2635,174,1487
2636,114,1495
2637,90,1520
2638,14,1522
2639,178,1524
2640,127,1538
2641,107,1564
2642,161,1610
2643,206,1614
2644,185,1620
2645,200,1623
2646,21,1634
2647,155,1650
2648,74,1664
2649,77,1698
2650,8,1708
2651,60,1713
2652,206,1753
2653,46,1755
2654,84,1756
2655,42,1768
2656,96,36463
2657,35,36464
2658,5,36465
2659,179,36469
2660,107,36476
2661,118,36478
2662,35,36490
2663,85,36497
2664,159,36504
2665,228,36512
2666,33,36514
2667,20,36523
2668,126,36525
2669,158,36535
2670,189,36541
2671,194,36545
2672,209,36558
2673,210,36562
2674,69,36564
2675,118,36565
2676,88,36566
2677,135,36567
2678,37,36570
2679,73,36571
2680,145,36573
2681,3,36579
2682,81,36583
2683,21,36586
2684,111,36588
2685,32,36591
2686,110,36592
2687,114,36594
2688,142,54267
2689,2,54269
2690,192,54276
2691,180,54279
2692,83,54287
2693,130,54288
2694,48,54289
2695,180,54291
2696,165,54295
2697,158,54301
2698,204,54304
2699,180,54305
2700,180,54306
2701,228,54307
2702,180,54312
2703,44,54316
2704,72,54317
2705,139,54318
2706,196,54320
2707,37,54324
2708,8,54329
2709,85,54342
2710,108,54343
2711,165,54344
2712,159,54345
2713,103,54349
2714,102,54350
2715,32,54353
2716,69,54359
2717,159,54361
2718,82,54365
2719,72,54367
2720,206,29377
2721,109,29385
2722,210,29387
2723,2,29409
2724,44,29414
2725,220,29435
2726,85,29439
2727,93,29447
2728,114,29464
2729,196,29500
2730,85,29561
2731,62,29571
2732,148,29599
2733,102,29602
2734,189,29629
2735,196,29753
2736,32,29865
2737,59,29909
2738,35,29928
2739,60,29942
2740,203,29945
2741,189,29958
2742,192,29968
2743,187,29982
2744,179,29986
2745,114,29990
2746,150,30003
2747,35,30006
2748,159,30030
2749,22,30107
2750,209,30111
2751,111,30117
2752,161,15203
2753,67,15239
2754,71,15371
2755,93,15511
2756,228,15617
2757,80,15626
2758,77,15708
2759,95,15726
2760,19,15776
2761,27,15889
2762,122,15892
2763,105,15895
2764,224,15925
2765,93,15963
2766,155,16065
2767,7,16093
2768,101,16363
2769,178,16369
2770,184,16488
2771,128,16541
2772,165,16553
2773,155,16700
2774,154,16703
2775,197,16791
2776,149,16809
2777,33,16827
2778,67,16842
2779,118,16853
2780,135,16895
2781,135,16924
2782,184,16954
2783,31,16983
2784,30,34904
2785,161,34909
2786,126,34947
2787,206,34965
2788,58,35012
2789,184,35025
2790,32,35072
2791,127,35201
2792,139,35255
2793,2,35296
2794,220,35305
2795,197,35344
2796,102,35395
2797,159,35443
2798,99,35594
2799,121,35683
2800,14,35823
2801,32,35862
2802,60,35866
2803,209,35877
2804,185,35938
2805,200,35964
2806,15,35966
2807,46,35984
2808,228,36018
2809,118,36176
2810,206,36260
2811,92,36414
2812,96,36444
2813,145,36572
2814,81,36842
2815,55,36851
2816,179,48617
2817,77,48623
2818,196,48630
2819,77,48631
2820,7,48635
2821,129,48637
2822,74,48641
2823,79,48642
2824,130,48648
2825,79,48649
2826,121,48650
2827,83,48653
2828,56,48654
2829,221,48657
2830,42,48658
2831,220,48660
2832,149,48662
2833,222,48664
2834,99,48669
2835,102,48670
2836,228,48671
2837,135,48673
2838,118,48675
2839,4,48678
2840,12,48684
2841,184,48686
2842,145,48691
2843,48,48695
2844,4,48696
2845,40,48699
2846,88,48700
2847,228,48701
2848,185,48973
2849,51,48974
2850,180,48975
2851,109,48980
2852,89,48981
2853,95,48986
2854,216,48987
2855,92,48988
2856,35,48990
2857,177,49009
2858,206,49011
2859,185,49012
2860,146,49017
2861,82,49018
2862,46,49023
2863,178,49024
2864,30,49026
2865,88,49027
2866,10,49032
2867,161,49040
2868,194,49042
2869,5,49043
2870,174,49044
2871,84,49045
2872,160,49046
2873,46,49049
2874,199,49050
2875,76,49054
2876,96,49055
2877,220,49056
2878,178,49057
2879,148,49065
2880,187,5611
2881,41,5631
2882,69,5638
2883,38,5655
2884,17,5657
2885,85,5661
2886,153,5664
2887,78,5676
2888,46,5710
2889,159,5714
2890,210,5722
2891,43,5731
2892,0,5742
2893,29,5789
2894,32,5792
2895,64,5830
2896,180,5833
2897,105,5859
2898,68,5861
2899,185,5863
2900,81,5875
2901,224,5879
2902,102,5883
2903,0,5901
2904,224,5906
2905,200,5935
2906,184,5938
2907,65,5947
2908,92,5949
2909,51,5952
2910,159,5966
2911,29,5969
2912,194,6934
2913,65,6940
2914,14,6941
2915,74,6953
2916,185,6954
2917,154,6974
2918,107,6990
2919,59,6993
2920,53,6995
2921,180,7012
2922,107,7017
2923,154,7021
2924,159,7047
2925,159,7048
2926,131,7061
2927,216,7066
2928,146,7067
2929,178,7071
2930,206,7100
2931,72,7101
2932,76,7112
2933,209,7113
2934,57,7114
2935,165,7129
2936,5,7132
2937,203,7137
2938,33,7155
2939,32,7167
2940,209,7175
2941,159,7176
2942,51,7177
2943,45,7186
2944,8,1927
2945,0,2044
2946,141,2641
2947,30,2799
2948,184,2837
2949,206,2881
2950,100,2970
2951,180,3191
2952,72,3243
2953,108,3396
2954,46,3588
2955,220,3671
2956,184,3858
2957,118,3882
2958,41,3930
2959,68,3953
2960,111,4117
2961,185,4403
2962,51,5299
2963,139,5506
2964,33,5776
2965,35,5980
2966,148,10435
2967,184,10582
2968,189,88
2969,114,130
2970,101,135
2971,74,193
2972,206,229
2973,17,318
2974,196,412
2975,196,1092
2976,209,30616
2977,192,30619
2978,14,30621
2979,34,30623
2980,6,30631
2981,184,30665
2982,63,30692
2983,1,30701
2984,178,30702
2985,177,30705
2986,37,30707
2987,180,30712
2988,130,30719
2989,194,30742
2990,37,30744
2991,9,30749
2992,39,30753
2993,94,30757
2994,194,30771
2995,165,30775
2996,178,30776
2997,177,30780
2998,9,30782
2999,69,30790
3000,41,30792
3001,54,30793
3002,92,30799
3003,150,30808
3004,1,30814
3005,132,30816
3006,178,30831
3007,128,30844
3008,135,30165
3009,99,30166
3010,199,30170
3011,228,30172
3012,68,30175
3013,136,30176
3014,46,30177
3015,17,30178
3016,179,30192
3017,81,30195
3018,105,30212
3019,153,30215
3020,104,30216
3021,108,30223
3022,63,30224
3023,192,30225
3024,58,30233
3025,74,30234
3026,81,30235
3027,209,30236
3028,34,30238
3029,25,30241
3030,63,30244
3031,174,30251
3032,8,30255
3033,115,30263
3034,189,30270
3035,99,30271
3036,83,30273
3037,88,30275
3038,9,30279
3039,92,30284
3040,200,24133
3041,146,24135
3042,177,24150
3043,141,24157
3044,54,24161
3045,81,24167
3046,30,24168
3047,4,24172
3048,4,24174
3049,126,24175
3050,140,24180
3051,165,24193
3052,154,24199
3053,122,24214
3054,142,24217
3055,91,24220
3056,0,24231
3057,5,24241
3058,20,24243
3059,110,24248
3060,26,24253
3061,37,24282
3062,204,24325
3063,146,24334
3064,26,24336
3065,120,24352
3066,146,24360
3067,165,24368
3068,83,24385
3069,32,24402
3070,26,24410
3071,108,24419
3072,62,27564
3073,54,27566
3074,5,27575
3075,185,27588
3076,100,27589
3077,79,27590
3078,17,27591
3079,35,27600
3080,51,27604
3081,136,27606
3082,89,27607
3083,9,27608
3084,17,27613
3085,0,27617
3086,153,27618
3087,158,27623
3088,81,27624
3089,7,27625
3090,133,27626
3091,2,27630
3092,172,27632
3093,159,27633
3094,72,27636
3095,102,27641
3096,66,27650
3097,178,27656
3098,206,27658
3099,107,27665
3100,148,27671
3101,62,27673
3102,99,27677
3103,99,27689
3104,40,58492
3105,206,58493
3106,148,58494
3107,74,58495
3108,99,58496
3109,146,58498
3110,114,58499
3111,161,58501
3112,57,58503
3113,62,58504
3114,74,58505
3115,154,58507
3116,178,58510
3117,63,58511
3118,21,58512
3119,92,58513
3120,228,58515
3121,159,58516
3122,60,58519
3123,48,58520
3124,103,58521
3125,57,58522
3126,145,58524
3127,110,58525
3128,59,58526
3129,79,58527
3130,55,58528
3131,81,58529
3132,76,58530
3133,52,58531
3134,114,58532
3135,106,58533
3136,58,40513
3137,135,40523
3138,153,40526
3139,21,40529
3140,60,40534
3141,221,40544
3142,32,40547
3143,14,40551
3144,93,40557
3145,81,40558
3146,141,40560
3147,76,40562
3148,46,40574
3149,81,40580
3150,224,40583
3151,123,40587
3152,30,40591
3153,33,40595
3154,76,40596
3155,104,40597
3156,32,40599
3157,153,40612
3158,6,40613
3159,71,40632
3160,174,40634
3161,148,40645
3162,145,40649
3163,192,40651
3164,174,40656
3165,146,40664
3166,26,40670
3167,52,40671
3168,204,48152
3169,6,48869
3170,66,49052
3171,24,49594
3172,5,49620
3173,199,50072
3174,10,50306
3175,135,50769
3176,189,51170
3177,1,51654
3178,128,51671
3179,26,51737
3180,20,51755
3181,153,51779
3182,108,51815
3183,106,51869
3184,17,51937
3185,32,52204
3186,62,52289
3187,224,52360
3188,37,52532
3189,81,52625
3190,190,52678
3191,94,52706
3192,13,52827
3193,42,53474
3194,145,53521
3195,2,53630
3196,147,53720
3197,88,53953
3198,130,54009
3199,2,54096
3200,184,20486
3201,88,20488
3202,126,20520
3203,147,20566
3204,100,20619
3205,64,20682
3206,160,20791
3207,132,20949
3208,81,20995
3209,46,21093
3210,16,21105
3211,44,21122
3212,71,21305
3213,14,21365
3214,177,21434
3215,157,21477
3216,204,21488
3217,30,21519
3218,178,21634
3219,224,21671
3220,62,21715
3221,55,21794
3222,25,21799
3223,117,21832
3224,26,21915
3225,160,21946
3226,57,21994
3227,64,22027
3228,32,22057
3229,136,22141
3230,102,22193
3231,56,22300
3232,10,47110
3233,159,47144
3234,13,47184
3235,76,47227
3236,3,47242
3237,76,47262
3238,32,47272
3239,8,47286
3240,147,47289
3241,180,47290
3242,155,47319
3243,14,47334
3244,221,47361
3245,139,47365
3246,153,47369
3247,4,47384
3248,32,47409
3249,62,47447
3250,178,47453
3251,74,47468
3252,8,47509
3253,179,47515
3254,77,47521
3255,228,47527
3256,142,47528
3257,58,47564
3258,171,47580
3259,200,47594
3260,141,47635
3261,130,47690
3262,84,47701
3263,56,47704
3264,125,203
3265,60,234
3266,2,237
3267,199,241
3268,103,269
3269,159,346
3270,158,365
3271,154,380
3272,159,407
3273,66,426
3274,0,455
3275,159,535
3276,33,549
3277,79,563
3278,159,576
3279,60,593
3280,179,596
3281,79,601
3282,161,610
3283,62,620
3284,148,628
3285,30,650
3286,8,660
3287,92,677
3288,34,690
3289,139,707
3290,122,721
3291,178,737
3292,111,739
3293,81,766
3294,130,767
3295,48,782
3296,30,39286
3297,4,39287
3298,180,39296
3299,60,39297
3300,72,39305
3301,37,39306
3302,29,39308
3303,224,39323
3304,102,39328
3305,99,39339
3306,187,39344
3307,92,39349
3308,111,39356
3309,128,39359
3310,60,39361
3311,46,39364
3312,109,39368
3313,117,39370
3314,114,39372
3315,48,39374
3316,78,39379
3317,171,39381
3318,94,39382
3319,56,39385
3320,146,39392
3321,142,39395
3322,99,39413
3323,216,39422
3324,0,39426
3325,50,39433
3326,32,39435
3327,41,39436
3328,131,26985
3329,192,27005
3330,46,27025
3331,153,27036
3332,108,27039
3333,74,27058
3334,4,27059
3335,60,27109
3336,113,27113
3337,158,27136
3338,206,27162
3339,127,27196
3340,136,27211
3341,0,27216
3342,149,27219
3343,46,27231
3344,179,27256
3345,185,27282
3346,81,27291
3347,85,27306
3348,204,27310
3349,66,27319
3350,150,27346
3351,103,27352
3352,209,27367
3353,51,27392
3354,7,27399
3355,77,27410
3356,178,27428
3357,171,27446
3358,18,27472
3359,60,27478
3360,161,13389
3361,172,13401
3362,192,13405
3363,80,13409
3364,21,13418
3365,180,13424
3366,56,13447
3367,178,13455
3368,150,13466
3369,49,13481
3370,99,13519
3371,172,13526
3372,93,13531
3373,118,13536
3374,184,13537
3375,121,13549
3376,52,13553
3377,141,13561
3378,26,13589
3379,80,13597
3380,177,13627
3381,21,13638
3382,157,13648
3383,149,13649
3384,15,13652
3385,37,13666
3386,108,13673
3387,224,13689
3388,154,13695
3389,96,13699
3390,68,13743
3391,80,13745
3392,56,31367
3393,220,31370
3394,228,31373
3395,197,31374
3396,190,31376
3397,59,31377
3398,85,31379
3399,161,31380
3400,15,31381
3401,149,31384
3402,55,31385
3403,216,31387
3404,136,31388
3405,126,31389
3406,159,31392
3407,159,31397
3408,187,31404
3409,32,31407
3410,224,31415
3411,4,31416
3412,210,31418
3413,106,31426
3414,114,31430
3415,56,31431
3416,165,31435
3417,158,31436
3418,76,31437
3419,38,31439
3420,161,31446
3421,209,31450
3422,68,31454
3423,96,31455
3424,72,30124
3425,125,30129
3426,132,30160
3427,148,30171
3428,165,30199
3429,102,30202
3430,158,30218
3431,17,30380
3432,57,30458
3433,115,30691
3434,157,30722
3435,64,30835
3436,113,30950
3437,41,30976
3438,76,30996
3439,126,31009
3440,103,31040
3441,66,31060
3442,206,31085
3443,92,31146
3444,190,31159
3445,113,31242
3446,96,31243
3447,148,31305
3448,95,31347
3449,63,31489
3450,157,31500
3451,153,31566
3452,85,31613
3453,123,31749
3454,178,31754
3455,46,31775
3456,63,20506
3457,30,20511
3458,8,20513
3459,122,20523
3460,114,20529
3461,114,20534
3462,179,20545
3463,88,20569
3464,159,20595
3465,33,20601
3466,79,20612
3467,93,20625
3468,77,20657
3469,17,20679
3470,180,20685
3471,160,20718
3472,153,20725
3473,34,20726
3474,150,20735
3475,158,20738
3476,203,20741
3477,52,20751
3478,158,20752
3479,64,20754
3480,9,20765
3481,79,20769
3482,194,20780
3483,74,20788
3484,27,20789
3485,105,20796
3486,26,20798
3487,203,20811
3488,147,14853
3489,194,14881
3490,209,14891
3491,171,14908
3492,68,14909
3493,14,14930
3494,44,14931
3495,110,14973
3496,146,14980
3497,153,14989
3498,52,14997
3499,3,15009
3500,146,15014
3501,104,15017
3502,51,15030
3503,76,15032
3504,95,15036
3505,37,15039
3506,46,15071
3507,57,15111
3508,100,15131
3509,145,15142
3510,61,15155
3511,57,15164
3512,114,15166
3513,145,15167
3514,101,15175
3515,57,15179
3516,184,15191
3517,54,15208
3518,76,15214
3519,136,15215
3520,55,18785
3521,126,18789
3522,194,18790
3523,80,18791
3524,128,18800
3525,160,18805
3526,160,18806
3527,15,18819
3528,26,18821
3529,67,18831
3530,194,18842
3531,0,18849
3532,204,18852
3533,187,18859
3534,222,18866
3535,127,18867
3536,114,18880
3537,11,18905
3538,123,18909
3539,196,18912
3540,96,18919
3541,135,18921
3542,190,18923
3543,180,18927
3544,210,18932
3545,184,18937
3546,199,18956
3547,9,18957
3548,9,18968
3549,102,18976
3550,216,18984
3551,174,18985
3552,55,17125
3553,153,17133
3554,158,17146
3555,185,17147
3556,99,17148
3557,158,17150
3558,29,17165
3559,135,17166
3560,7,17175
3561,77,17184
3562,51,17196
3563,155,17220
3564,66,17223
3565,99,17227
3566,21,17230
3567,149,17240
3568,5,17258
3569,142,17261
3570,189,17263
3571,68,17294
3572,128,17296
3573,88,17299
3574,66,17303
3575,84,17329
3576,197,17335
3577,136,17341
3578,123,17342
3579,177,17349
3580,88,17366
3581,92,17386
3582,64,17389
3583,68,17401
3584,159,39015
3585,105,39024
3586,130,39025
3587,133,39038
3588,71,39054
3589,57,39057
3590,224,39061
3591,224,39077
3592,155,39088
3593,44,39102
3594,14,39112
3595,6,39135
3596,154,39136
3597,12,39146
3598,185,39151
3599,146,39158
3600,194,39163
3601,161,39165
3602,222,39166
3603,59,39167
3604,44,39176
3605,76,39178
3606,9,39181
3607,96,39183
3608,178,39187
3609,93,39188
3610,150,39216
3611,92,39226
3612,118,39228
3613,0,39229
3614,32,39234
3615,15,39243
3616,155,56970
3617,74,56971
3618,146,56982
3619,104,56984
3620,79,56988
3621,9,56989
3622,149,56991
3623,92,56993
3624,50,56997
3625,43,56999
3626,58,57000
3627,162,57012
3628,84,57015
3629,21,57020
3630,102,57021
3631,21,57026
3632,57,57027
3633,74,57038
3634,3,57039
3635,114,57050
3636,105,57052
3637,27,57056
3638,95,57061
3639,149,57065
3640,130,57076
3641,161,57078
3642,194,57080
3643,45,57081
3644,121,57082
3645,100,57090
3646,14,57098
3647,6,57113
3648,228,28228
3649,71,28229
3650,150,28231
3651,174,28233
3652,153,28234
3653,178,28238
3654,4,28244
3655,5,28246
3656,148,28247
3657,1,28255
3658,221,28257
3659,130,28260
3660,31,28261
3661,107,28270
3662,184,28275
3663,5,28279
3664,203,28281
3665,171,28283
3666,159,28286
3667,32,28288
3668,148,28301
3669,60,28302
3670,177,28307
3671,209,28311
3672,184,28313
3673,12,28317
3674,32,28322
3675,141,28323
3676,102,28325
3677,149,28330
3678,172,28331
3679,114,28333
3680,194,12053
3681,32,12058
3682,32,12067
3683,159,12076
3684,90,12084
3685,62,12093
3686,92,12109
3687,209,12145
3688,228,12167
3689,14,12169
3690,56,12177
3691,93,12199
3692,158,12202
3693,118,12213
3694,103,12224
3695,37,12226
3696,149,12230
3697,159,12245
3698,180,12252
3699,0,12254
3700,60,12260
3701,147,12288
3702,108,12289
3703,77,12301
3704,184,12304
3705,106,12314
3706,99,12331
3707,44,12357
3708,81,12369
3709,180,12372
3710,84,12381
3711,178,12392
3712,10,6462
3713,100,6464
3714,66,6483
3715,153,6484
3716,62,6496
3717,44,6515
3718,79,6525
3719,9,6541
3720,68,6564
3721,62,6577
3722,64,6580
3723,130,6593
3724,33,6596
3725,114,6640
3726,194,6690
3727,53,6718
3728,44,6722
3729,29,6757
3730,204,6763
3731,14,6768
3732,35,6775
3733,80,6799
3734,85,6806
3735,74,6808
3736,172,6814
3737,46,6815
3738,159,6875
3739,159,6877
3740,158,6882
3741,100,6904
3742,187,6971
3743,206,7058
3744,194,59391
3745,154,59392
3746,114,59393
3747,14,59394
3748,128,59395
3749,41,59396
3750,14,59397
3751,18,59398
3752,159,59399
3753,114,59401
3754,107,59402
3755,153,59403
3756,206,59405
3757,11,59406
3758,9,59407
3759,101,59408
3760,90,59409
3761,149,59410
3762,69,59411
3763,177,59412
3764,199,59413
3765,141,59415
3766,199,59416
3767,85,59417
3768,5,59420
3769,130,59422
3770,174,59423
3771,146,59425
3772,187,59426
3773,44,59427
3774,122,59428
3775,159,59429
3776,210,35932
3777,204,35936
3778,220,35950
3779,96,35970
3780,0,35975
3781,200,36008
3782,179,36019
3783,185,36034
3784,14,36044
3785,39,36047
3786,64,36049
3787,79,36051
3788,159,36052
3789,221,36055
3790,67,36059
3791,33,36077
3792,147,36080
3793,158,36085
3794,128,36087
3795,30,36090
3796,60,36093
3797,142,36095
3798,89,36104
3799,199,36106
3800,32,36114
3801,200,36116
3802,146,36123
3803,190,36124
3804,149,36134
3805,118,36137
3806,34,36139
3807,83,36140
3808,97,40188
3809,113,40201
3810,56,40206
3811,108,40210
3812,209,40211
3813,64,40213
3814,41,40214
3815,68,40217
3816,80,40218
3817,5,40224
3818,199,40225
3819,103,40228
3820,109,40233
3821,66,40244
3822,1,40250
3823,155,40251
3824,57,40259
3825,81,40272
3826,7,40273
3827,72,40274
3828,52,40279
3829,111,40283
3830,178,40286
3831,14,40290
3832,130,40294
3833,165,40296
3834,206,40300
3835,180,40302
3836,92,40305
3837,14,40314
3838,77,40316
3839,54,40323
3840,0,13768
3841,38,13901
3842,8,14038
3843,118,14049
3844,74,14060
3845,46,14358
3846,72,14503
3847,209,14742
3848,210,15547
3849,103,18348
3850,17,20264
3851,141,20651
3852,46,21558
3853,180,7
3854,136,208
3855,46,217
3856,206,286
3857,17,355
3858,76,389
3859,139,391
3860,58,411
3861,68,452
3862,178,463
3863,128,582
3864,172,589
3865,148,592
3866,68,651
3867,146,712
3868,9,723
3869,148,734
3870,150,948
3871,88,968
3872,159,17402
3873,136,17403
3874,153,17408
3875,79,17414
3876,187,17427
3877,46,17432
3878,30,17451
3879,57,17461
3880,9,17477
3881,54,17478
3882,35,17486
3883,53,17490
3884,79,17492
3885,30,17496
3886,146,17520
3887,220,17540
3888,41,17544
3889,146,17551
3890,178,17559
3891,210,17562
3892,7,17575
3893,192,17583
3894,66,17584
3895,60,17589
3896,7,17591
3897,62,17609
3898,85,17610
3899,222,17611
3900,28,17613
3901,37,17617
3902,6,17624
3903,103,17656
3904,114,8404
3905,21,8405
3906,21,8408
3907,105,8412
3908,113,8414
3909,60,8424
3910,69,8429
3911,35,8432
3912,114,8433
3913,159,8436
3914,103,8438
3915,67,8450
3916,108,8453
3917,88,8459
3918,115,8466
3919,192,8467
3920,29,8469
3921,44,8482
3922,103,8483
3923,74,8491
3924,108,8492
3925,80,8498
3926,92,8502
3927,148,8503
3928,92,8513
3929,125,8514
3930,159,8516
3931,106,8518
3932,102,8522
3933,142,8523
3934,35,8524
3935,23,8534
3936,159,18232
3937,161,18249
3938,204,18292
3939,159,18313
3940,67,18318
3941,197,18333
3942,37,18349
3943,35,18385
3944,73,18390
3945,1,18393
3946,132,18403
3947,197,18408
3948,26,18414
3949,178,18415
3950,220,18416
3951,110,18420
3952,63,18428
3953,34,18437
3954,200,18445
3955,96,18448
3956,113,18450
3957,102,18452
3958,58,18466
3959,209,18481
3960,93,18489
3961,224,18498
3962,77,18499
3963,132,18520
3964,5,18524
3965,6,18539
3966,18,18541
3967,58,18556
3968,26,13004
3969,55,13023
3970,159,13027
3971,180,13061
3972,142,13063
3973,80,13073
3974,41,13078
3975,85,13089
3976,33,13101
3977,145,13110
3978,194,13160
3979,126,13171
3980,43,13179
3981,9,13190
3982,220,13191
3983,172,13236
3984,209,13241
3985,209,13264
3986,206,13265
3987,11,13269
3988,128,13271
3989,18,13307
3990,106,13311
3991,73,13329
3992,8,13334
3993,204,13342
3994,206,13359
3995,210,13385
3996,117,13387
3997,44,13388
3998,159,13402
3999,78,13430
4000,99,58400
4001,94,58404
4002,174,58405
4003,33,58406
4004,85,58407
4005,203,58408
4006,114,58409
4007,149,58410
4008,33,58411
4009,108,58412
4010,66,58413
4011,72,58416
4012,128,58417
4013,32,58418
4014,174,58419
4015,158,58420
4016,180,58422
4017,135,58423
4018,10,58424
4019,149,58426
4020,187,58427
4021,34,58428
4022,126,58429
4023,220,58431
4024,105,58432
4025,105,58433
4026,53,58434
4027,161,58435
4028,220,58439
4029,135,58441
4030,178,58442
4031,90,58443
4032,14,46741
4033,92,46742
4034,24,46746
4035,67,46749
4036,48,46753
4037,220,46756
4038,114,46757
4039,153,46759
4040,160,46766
4041,76,46768
4042,101,46769
4043,55,46775
4044,77,46782
4045,153,46785
4046,67,46786
4047,57,46788
4048,125,46791
4049,206,46792
4050,200,46799
4051,156,46800
4052,96,46801
4053,85,46806
4054,108,46810
4055,147,46813
4056,157,46814
4057,62,46816
4058,6,46818
4059,29,46819
4060,150,46820
4061,125,46821
4062,141,46824
4063,178,46825
4064,47,42776
4065,172,42782
4066,102,42784
4067,44,42808
4068,53,42809
4069,146,42810
4070,228,42820
4071,51,42827
4072,103,42829
4073,158,42839
4074,44,42847
4075,37,42857
4076,158,42871
4077,9,42905
4078,9,42906
4079,7,42911
4080,46,42917
4081,71,42918
4082,180,42919
4083,159,42926
4084,56,42928
4085,0,42937
4086,56,42941
4087,95,42943
4088,220,42944
4089,2,42968
4090,148,42976
4091,140,42981
4092,12,43001
4093,66,43002
4094,81,43008
4095,30,43013
4096,99,17309
4097,68,17338
4098,132,17346
4099,6,17352
4100,165,17385
4101,108,17394
4102,222,17406
4103,209,17418
4104,37,17420
4105,59,17429
4106,76,17430
4107,56,17443
4108,109,17459
4109,178,17473
4110,178,17483
4111,74,17497
4112,113,17505
4113,184,17518
4114,60,17530
4115,162,17536
4116,125,17539
4117,158,17541
4118,142,17545
4119,94,17553
4120,76,17595
4121,141,17601
4122,108,17615
4123,17,17618
4124,32,17633
4125,142,17639
4126,99,17644
4127,114,17657
4128,118,17665
4129,179,17677
4130,43,17684
4131,57,17696
4132,52,17728
4133,224,17732
4134,209,17735
4135,56,17742
4136,224,17743
4137,174,17751
4138,68,17756
4139,180,17757
4140,85,17763
4141,79,17775
4142,57,17777
4143,76,17778
4144,145,17780
4145,222,17790
4146,194,17798
4147,38,17806
4148,14,17813
4149,67,17824
4150,135,17835
4151,172,17836
4152,51,17845
4153,159,17847
4154,180,17858
4155,30,17859
4156,32,17871
4157,48,17877
4158,111,17884
4159,9,17898
4160,131,60474
4161,92,60475
4162,100,60476
4163,5,60477
4164,118,60478
4165,60,60479
4166,131,60480
4167,121,60482
4168,11,60483
4169,96,60484
4170,194,60485
4171,125,60486
4172,81,60487
4173,200,60488
4174,67,60489
4175,17,60490
4176,34,60491
4177,87,60492
4178,111,60493
4179,92,60495
4180,199,60496
4181,10,60497
4182,113,60498
4183,128,60499
4184,46,60500
4185,220,60501
4186,179,60502
4187,147,60503
4188,15,60504
4189,20,60505
4190,159,60506
4191,210,60507
4192,206,44848
4193,222,44852
4194,178,44855
4195,185,44864
4196,159,44866
4197,159,44870
4198,41,44872
4199,118,44874
4200,129,44879
4201,88,44880
4202,10,44883
4203,130,44885
4204,77,44887
4205,74,44896
4206,146,44897
4207,38,44898
4208,110,44900
4209,130,44901
4210,7,44905
4211,115,44921
4212,158,44924
4213,220,44926
4214,107,44932
4215,184,44933
4216,185,44941
4217,216,44942
4218,96,44957
4219,184,44964
4220,194,44966
4221,63,44967
4222,52,44968
4223,171,44969
4224,132,11022
4225,77,11028
4226,67,11042
4227,224,11048
4228,159,11059
4229,2,11063
4230,153,11069
4231,79,11107
4232,66,11112
4233,72,11120
4234,99,11127
4235,43,11182
4236,1,11206
4237,120,11213
4238,132,11226
4239,51,11229
4240,34,11268
4241,46,11278
4242,146,11300
4243,78,11335
4244,224,11365
4245,228,11367
4246,81,11380
4247,127,11387
4248,209,11392
4249,189,11394
4250,92,11412
4251,83,11420
4252,32,11429
4253,7,11450
4254,32,11464
4255,126,11472
4256,46,37596
4257,179,37614
4258,204,37632
4259,165,37687
4260,158,37688
4261,21,37705
4262,220,37706
4263,34,37719
4264,95,37739
4265,210,37747
4266,6,37750
4267,200,37758
4268,79,37760
4269,58,37761
4270,58,37780
4271,206,37807
4272,184,37822
4273,118,37835
4274,129,37840
4275,174,37875
4276,180,37913
4277,204,37939
4278,99,37953
4279,13,37983
4280,174,37990
4281,0,38016
4282,85,38025
4283,68,38026
4284,180,38031
4285,146,38032
4286,85,38046
4287,121,38047
4288,57,31966
4289,159,32015
4290,160,32025
4291,52,32031
4292,15,32039
4293,172,32050
4294,160,32051
4295,51,32062
4296,174,32083
4297,216,32091
4298,148,32095
4299,209,32099
4300,222,32100
4301,118,32118
4302,103,32137
4303,121,32149
4304,108,32154
4305,81,32178
4306,147,32180
4307,203,32183
4308,157,32197
4309,14,32200
4310,76,32236
4311,224,32248
4312,150,32252
4313,203,32255
4314,120,32261
4315,1,32262
4316,26,32266
4317,42,32308
4318,92,32325
4319,28,32351
4320,178,21229
4321,19,21235
4322,32,21252
4323,209,21255
4324,24,21279
4325,210,21282
4326,101,21285
4327,125,21287
4328,29,21289
4329,27,21292
4330,32,21294
4331,122,21295
4332,7,21313
4333,150,21317
4334,121,21321
4335,127,21339
4336,53,21343
4337,216,21344
4338,0,21351
4339,228,21369
4340,155,21371
4341,189,21372
4342,146,21373
4343,174,21383
4344,117,21390
4345,159,21395
4346,67,21398
4347,172,21406
4348,100,21416
4349,146,21427
4350,172,21429
4351,179,21443
4352,217,47799
4353,102,47800
4354,113,47806
4355,108,47808
4356,185,47810
4357,155,47812
4358,148,47820
4359,190,47823
4360,99,47829
4361,118,47836
4362,24,47838
4363,224,47840
4364,130,47841
4365,51,47842
4366,32,47843
4367,155,47844
4368,159,47847
4369,158,47851
4370,79,47854
4371,87,47858
4372,6,47859
4373,46,47861
4374,14,47876
4375,153,47880
4376,145,47882
4377,189,47883
4378,192,47885
4379,35,47892
4380,21,47895
4381,90,47896
4382,126,47899
4383,39,47900
4384,150,49135
4385,46,49141
4386,135,49142
4387,32,49144
4388,135,49148
4389,24,49151
4390,150,49152
4391,118,49156
4392,174,49157
4393,126,49161
4394,72,49162
4395,135,49167
4396,192,49169
4397,43,49170
4398,88,49172
4399,21,49173
4400,206,49177
4401,125,49186
4402,142,49188
4403,129,49191
4404,114,49192
4405,105,49194
4406,35,49195
4407,105,49196
4408,5,49197
4409,102,49203
4410,46,49204
4411,194,49205
4412,161,49206
4413,68,49209
4414,147,49211
4415,150,49213
4416,69,19473
4417,78,19505
4418,99,19513
4419,146,19520
4420,131,19521
4421,52,19534
4422,64,19546
4423,65,19551
4424,194,19563
4425,54,19567
4426,159,19568
4427,158,19569
4428,187,19580
4429,64,19586
4430,95,19590
4431,21,19593
4432,51,19610
4433,159,19612
4434,57,19614
4435,83,19616
4436,192,19621
4437,9,19626
4438,111,19627
4439,154,19633
4440,21,19642
4441,125,19652
4442,58,19654
4443,190,19657
4444,206,19668
4445,65,19671
4446,130,19673
4447,66,19684
4448,15,32401
4449,46,32405
4450,196,32415
4451,52,32420
4452,15,32421
4453,209,32429
4454,159,32431
4455,62,32440
4456,110,32441
4457,57,32448
4458,108,32451
4459,79,32461
4460,204,32466
4461,209,32467
4462,9,32472
4463,174,32475
4464,159,32477
4465,220,32482
4466,26,32484
4467,149,32487
4468,123,32488
4469,10,32490
4470,203,32492
4471,171,32494
4472,187,32496
4473,161,32502
4474,80,32503
4475,172,32504
4476,100,32507
4477,84,32508
4478,184,32510
4479,24,32515
4480,10,18538
4481,206,18548
4482,1,18555
4483,125,18561
4484,77,18566
4485,48,18576
4486,32,18578
4487,153,18579
4488,26,18593
4489,88,18594
4490,94,18603
4491,67,18606
4492,162,18651
4493,38,18662
4494,141,18673
4495,30,18675
4496,69,18699
4497,41,18704
4498,139,18706
4499,136,18707
4500,199,18710
4501,89,18715
4502,84,18730
4503,228,18742
4504,196,18749
4505,92,18754
4506,161,18764
4507,184,18766
4508,102,18771
4509,130,18776
4510,62,18777
4511,52,18780
4512,179,20535
4513,74,20536
4514,113,20554
4515,68,20564
4516,6,20580
4517,159,20581
4518,24,20582
4519,14,20598
4520,92,20600
4521,81,20603
4522,62,20606
4523,206,20608
4524,185,20620
4525,221,20626
4526,95,20642
4527,113,20644
4528,30,20647
4529,210,20654
4530,187,20660
4531,180,20663
4532,33,20664
4533,35,20671
4534,160,20680
4535,184,20686
4536,29,20691
4537,83,20703
4538,48,20731
4539,161,20734
4540,74,20736
4541,74,20740
4542,43,20742
4543,91,20746
4544,5,12456
4545,146,12478
4546,196,12519
4547,132,12543
4548,7,12603
4549,220,12656
4550,72,12657
4551,25,12706
4552,76,12709
4553,115,12730
4554,180,12734
4555,54,12786
4556,222,12854
4557,32,12858
4558,63,12866
4559,220,12885
4560,102,12901
4561,66,12912
4562,51,12926
4563,29,12953
4564,79,13032
4565,84,13064
4566,77,13098
4567,51,13210
4568,190,13232
4569,165,13246
4570,92,13274
4571,69,13313
4572,179,13324
4573,52,13351
4574,105,13461
4575,209,13514
4576,206,55157
4577,115,55160
4578,185,55162
4579,99,55165
4580,154,55168
4581,200,55194
4582,190,55196
4583,56,55202
4584,104,55209
4585,216,55212
4586,121,55216
4587,108,55226
4588,2,55233
4589,155,55234
4590,92,55262
4591,114,55268
4592,160,55270
4593,79,55271
4594,107,55273
4595,54,55285
4596,40,55295
4597,43,55304
4598,32,55308
4599,189,55309
4600,57,55320
4601,41,55323
4602,126,55331
4603,57,55341
4604,67,55344
4605,159,55348
4606,30,55349
4607,46,55350
4608,158,7923
4609,71,7941
4610,159,7958
4611,104,7964
4612,95,7970
4613,92,7974
4614,93,7975
4615,62,7988
4616,216,7990
4617,0,8005
4618,92,8016
4619,206,8029
4620,103,8035
4621,20,8074
4622,221,8083
4623,8,8085
4624,30,8087
4625,52,8103
4626,66,8110
4627,153,8112
4628,153,8126
4629,92,8137
4630,153,8147
4631,189,8151
4632,160,8154
4633,66,8158
4634,38,8161
4635,85,8162
4636,5,8166
4637,5,8178
4638,52,8189
4639,185,8196
4640,54,23489
4641,21,23491
4642,33,23495
4643,92,23504
4644,1,23505
4645,165,23506
4646,81,23507
4647,148,23520
4648,103,23526
4649,180,23539
4650,161,23540
4651,79,23562
4652,96,23569
4653,145,23573
4654,88,23574
4655,206,23579
4656,224,23582
4657,161,23589
4658,0,23591
4659,37,23599
4660,105,23602
4661,158,23608
4662,79,23616
4663,131,23617
4664,79,23625
4665,161,23628
4666,178,23632
4667,131,23636
4668,196,23639
4669,70,23642
4670,153,23643
4671,38,23657
4672,199,2985
4673,209,3027
4674,145,3028
4675,88,3038
4676,125,3060
4677,114,3088
4678,60,3208
4679,132,3297
4680,40,3388
4681,57,3392
4682,108,3549
4683,52,3569
4684,9,3604
4685,68,3633
4686,222,3739
4687,106,3740
4688,30,3786
4689,84,3789
4690,84,3794
4691,159,3805
4692,1,3810
4693,35,3830
4694,145,3836
4695,92,3945
4696,26,4052
4697,174,4065
4698,21,4112
4699,185,4155
4700,41,4188
4701,72,4193
4702,0,4199
4703,46,4208
4704,51,48352
4705,154,48356
4706,57,48359
4707,206,48361
4708,203,48365
4709,220,48397
4710,51,48398
4711,114,48402
4712,56,48406
4713,149,48416
4714,220,48426
4715,178,48439
4716,165,48444
4717,150,48449
4718,224,48456
4719,162,48466
4720,203,48479
4721,132,48481
4722,145,48493
4723,180,48496
4724,153,48498
4725,203,48522
4726,161,48526
4727,159,48539
4728,18,48540
4729,32,48556
4730,179,48561
4731,172,48590
4732,178,48594
4733,15,48602
4734,118,48636
4735,210,48638
4736,72,40913
4737,95,40914
4738,77,40916
4739,7,40918
4740,147,40920
4741,56,40928
4742,61,40931
4743,3,40932
4744,56,40935
4745,135,40936
4746,210,40942
4747,102,40944
4748,180,40945
4749,72,40952
4750,28,40955
4751,149,40958
4752,139,40965
4753,189,40968
4754,17,40971
4755,64,40973
4756,41,40980
4757,180,40989
4758,187,40991
4759,68,40992
4760,14,40999
4761,206,41002
4762,159,41011
4763,180,41013
4764,203,41014
4765,52,41015
4766,190,41017
4767,199,41022
4768,9,53214
4769,162,53217
4770,26,53218
4771,66,53219
4772,67,53226
4773,6,53242
4774,194,53247
4775,17,53248
4776,7,53252
4777,122,53253
4778,84,53256
4779,30,53258
4780,171,53260
4781,178,53261
4782,70,53263
4783,0,53265
4784,109,53271
4785,153,53276
4786,192,53277
4787,150,53278
4788,155,53281
4789,147,53282
4790,190,53284
4791,184,53286
4792,32,53288
4793,114,53291
4794,172,53292
4795,0,53293
4796,67,53296
4797,142,53297
4798,1,53306
4799,158,53307
4800,145,9485
4801,85,9493
4802,102,9496
4803,29,9504
4804,145,9507
4805,146,9514
4806,92,9523
4807,1,9535
4808,15,9549
4809,224,9552
4810,84,9554
4811,9,9558
4812,74,9567
4813,189,9568
4814,42,9569
4815,56,9576
4816,115,9579
4817,76,9582
4818,194,9584
4819,57,9590
4820,102,9601
4821,33,9602
4822,88,9605
4823,160,9618
4824,92,9622
4825,10,9627
4826,32,9629
4827,29,9630
4828,7,9633
4829,32,9634
4830,118,9639
4831,187,9647
4832,10,51225
4833,35,51230
4834,62,51265
4835,142,51289
4836,99,51307
4837,159,51314
4838,148,51337
4839,216,51417
4840,107,51563
4841,147,51572
4842,92,51603
4843,7,51626
4844,206,51627
4845,81,51630
4846,158,51633
4847,220,51638
4848,177,51640
4849,159,51646
4850,67,51650
4851,111,51653
4852,106,51678
4853,63,51685
4854,66,51693
4855,228,51698
4856,51,51705
4857,0,51721
4858,62,51729
4859,159,51731
4860,92,51738
4861,153,51742
4862,194,51743
4863,7,51750
4864,17,35230
4865,69,35231
4866,148,35234
4867,7,35236
4868,92,35238
4869,55,35272
4870,102,35278
4871,14,35282
4872,199,35284
4873,38,35291
4874,32,35297
4875,68,35299
4876,142,35304
4877,197,35308
4878,178,35317
4879,71,35319
4880,67,35327
4881,100,35330
4882,81,35332
4883,10,35340
4884,150,35346
4885,180,35347
4886,24,35358
4887,121,35366
4888,159,35367
4889,14,35378
4890,99,35381
4891,37,35384
4892,85,35392
4893,54,35399
4894,132,35404
4895,187,35406
4896,199,57792
4897,9,57793
4898,108,57794
4899,174,57797
4900,109,57800
4901,72,57801
4902,114,57803
4903,185,57804
4904,130,57806
4905,77,57807
4906,106,57808
4907,158,57810
4908,199,57811
4909,15,57812
4910,220,57813
4911,131,57814
4912,184,57816
4913,194,57817
4914,209,57819
4915,62,57823
4916,200,57824
4917,184,57826
4918,206,57827
4919,209,57829
4920,194,57830
4921,162,57835
4922,142,57836
4923,146,57837
4924,46,57839
4925,46,57840
4926,139,57842
4927,14,57843
4928,52,57845
4929,199,57846
4930,100,57848
4931,9,57850
4932,178,57851
4933,13,57852
4934,158,57855
4935,159,57856
4936,187,57857
4937,118,57860
4938,77,57861
4939,113,57865
4940,56,57867
4941,94,57868
4942,6,57869
4943,108,57870
4944,185,57871
4945,104,57873
4946,80,57874
4947,126,57875
4948,106,57876
4949,199,57877
4950,5,57881
4951,88,57882
4952,178,57885
4953,60,57887
4954,85,57894
4955,7,57896
4956,114,57897
4957,108,57899
4958,20,57900
4959,83,57903
4960,59,39612
4961,204,39614
4962,76,39617
4963,42,39626
4964,159,39634
4965,178,39639
4966,0,39643
4967,74,39644
4968,9,39662
4969,57,39673
4970,187,39675
4971,46,39677
4972,180,39684
4973,209,39692
4974,66,39695
4975,52,39697
4976,187,39703
4977,172,39704
4978,85,39708
4979,128,39709
4980,1,39711
4981,58,39726
4982,125,39738
4983,148,39749
4984,84,39753
4985,158,39755
4986,197,39759
4987,209,39768
4988,21,39770
4989,103,39772
4990,185,39784
4991,107,39785
4992,1,22024
4993,154,22042
4994,94,22051
4995,93,22062
4996,56,22064
4997,149,22073
4998,2,22075
4999,130,22101
5000,77,22103
5001,220,22108
5002,158,22131
5003,189,22135
5004,67,22145
5005,66,22148
5006,54,22150
5007,84,22155
5008,10,22158
5009,79,22161
5010,52,22169
5011,150,22182
5012,104,22188
5013,14,22200
5014,162,22213
5015,200,22217
5016,2,22222
5017,81,22225
5018,180,22239
5019,199,22244
5020,102,22250
5021,172,22257
5022,72,22260
5023,115,22276
5024,178,44039
5025,7,44044
5026,148,44063
5027,66,44069
5028,130,44074
5029,187,44082
5030,189,44084
5031,179,44089
5032,62,44094
5033,6,44101
5034,221,44102
5035,101,44111
5036,130,44126
5037,149,44133
5038,105,44136
5039,206,44140
5040,194,44141
5041,150,44152
5042,107,44154
5043,24,44155
5044,187,44159
5045,131,44160
5046,76,44167
5047,148,44168
5048,10,44175
5049,114,44181
5050,130,44187
5051,33,44191
5052,91,44193
5053,32,44197
5054,132,44203
5055,216,44217
5056,34,46518
5057,113,46520
5058,157,46521
5059,209,46524
5060,10,46525
5061,147,46531
5062,48,46532
5063,6,46534
5064,177,46535
5065,100,46536
5066,54,46537
5067,85,46538
5068,84,46540
5069,153,46541
5070,153,46543
5071,159,46544
5072,102,46546
5073,172,46550
5074,197,46551
5075,158,46555
5076,109,46556
5077,74,46558
5078,108,46560
5079,7,46562
5080,81,46563
5081,12,46564
5082,101,46566
5083,57,46568
5084,165,46569
5085,27,46571
5086,171,46573
5087,16,46577
5088,194,55637
5089,7,55638
5090,102,55640
5091,74,55642
5092,26,55643
5093,33,55645
5094,41,55651
5095,68,55655
5096,18,55663
5097,95,55670
5098,158,55671
5099,7,55675
5100,88,55677
5101,153,55681
5102,110,55683
5103,30,55684
5104,204,55690
5105,155,55691
5106,114,55701
5107,150,55702
5108,216,55704
5109,80,55705
5110,147,55707
5111,1,55708
5112,34,55709
5113,158,55712
5114,203,55715
5115,150,55718
5116,45,55721
5117,62,55722
5118,149,55725
5119,187,55732
5120,90,11653
5121,76,11656
5122,64,11670
5123,228,11721
5124,46,11766
5125,125,11788
5126,122,11875
5127,154,11890
5128,0,11910
5129,180,11911
5130,62,11966
5131,123,11967
5132,37,11989
5133,84,11998
5134,18,12004
5135,54,12018
5136,197,12064
5137,203,12066
5138,81,12102
5139,154,12135
5140,224,12155
5141,30,12160
5142,49,12175
5143,48,12206
5144,71,12265
5145,66,12297
5146,194,12305
5147,141,12341
5148,158,12380
5149,146,12397
5150,179,12401
5151,37,12420
5152,46,42617
5153,102,42628
5154,51,42650
5155,100,42651
5156,180,42657
5157,68,42666
5158,159,42671
5159,209,42679
5160,141,42685
5161,76,42687
5162,46,42690
5163,174,42697
5164,203,42704
5165,224,42705
5166,77,42707
5167,128,42726
5168,68,42736
5169,113,42737
5170,194,42742
5171,72,42744
5172,51,42749
5173,184,42752
5174,103,42755
5175,56,42761
5176,15,42765
5177,153,42769
5178,80,42777
5179,0,42778
5180,51,42780
5181,2,42786
5182,66,42787
5183,88,42788
5184,145,12669
5185,34,12800
5186,109,12805
5187,51,12934
5188,99,13163
5189,145,13170
5190,120,13226
5191,6,13360
5192,77,13404
5193,74,13490
5194,108,13520
5195,93,13889
5196,4,13954
5197,172,14118
5198,41,14220
5199,123,14440
5200,3,14528
5201,126,14570
5202,84,14664
5203,185,14816
5204,184,14841
5205,192,14963
5206,27,15105
5207,60,15882
5208,19,15996
5209,150,16259
5210,165,16513
5211,184,17008
5212,103,20565
5213,178,22227
5214,69,22770
5215,46,23631
5216,68,44731
5217,97,44737
5218,224,44742
5219,88,44749
5220,185,44751
5221,105,44752
5222,74,44759
5223,13,44767
5224,95,44770
5225,153,44778
5226,135,44792
5227,184,44794
5228,158,44799
5229,200,44800
5230,96,44814
5231,93,44815
5232,130,44819
5233,4,44829
5234,68,44834
5235,187,44841
5236,179,44842
5237,147,44847
5238,14,44857
5239,69,44859
5240,125,44860
5241,149,44861
5242,139,44868
5243,67,44869
5244,24,44871
5245,95,44873
5246,161,44875
5247,21,44884
5248,66,7039
5249,132,7103
5250,114,7141
5251,44,7160
5252,179,7161
5253,206,7178
5254,221,7236
5255,180,7333
5256,192,7338
5257,35,7339
5258,14,7384
5259,200,7403
5260,7,7432
5261,153,7477
5262,45,7508
5263,56,7577
5264,66,7599
5265,85,7614
5266,51,7617
5267,7,7631
5268,68,7673
5269,118,7680
5270,196,7755
5271,129,7833
5272,190,7852
5273,44,7870
5274,206,7932
5275,220,7944
5276,113,8022
5277,32,8026
5278,150,8344
5279,114,8349
5280,139,55009
5281,103,55011
5282,132,55012
5283,21,55013
5284,64,55020
5285,157,55028
5286,37,55029
5287,81,55030
5288,5,55031
5289,79,55033
5290,196,55036
5291,141,55037
5292,161,55039
5293,44,55040
5294,159,55044
5295,81,55047
5296,88,55048
5297,69,55049
5298,76,55050
5299,159,55055
5300,82,55060
5301,115,55067
5302,56,55076
5303,74,55077
5304,66,55082
5305,81,55085
5306,32,55087
5307,122,55088
5308,46,55089
5309,206,55090
5310,127,55091
5311,85,55093
5312,187,17922
5313,161,17923
5314,221,17926
5315,56,17929
5316,4,17936
5317,79,17944
5318,66,17959
5319,154,17965
5320,107,17977
5321,41,17986
5322,185,18004
5323,113,18026
5324,158,18030
5325,220,18035
5326,157,18038
5327,222,18064
5328,64,18078
5329,27,18086
5330,68,18094
5331,178,18098
5332,7,18108
5333,145,18112
5334,216,18124
5335,128,18125
5336,209,18140
5337,59,18158
5338,153,18159
5339,26,18188
5340,105,18192
5341,14,18226
5342,174,18238
5343,114,18239
5344,42,22802
5345,105,22819
5346,30,22820
5347,122,22825
5348,83,22826
5349,13,22835
5350,159,22846
5351,159,22854
5352,150,22855
5353,154,22858
5354,60,22859
5355,29,22868
5356,2,22869
5357,108,22875
5358,141,22882
5359,178,22893
5360,14,22899
5361,60,22910
5362,178,22911
5363,196,22914
5364,131,22919
5365,57,22929
5366,135,22931
5367,200,22953
5368,6,22959
5369,210,22968
5370,161,22978
5371,108,22980
5372,90,22989
5373,189,22995
5374,97,22997
5375,127,23015
5376,53,53717
5377,103,53722
5378,88,53728
5379,56,53729
5380,56,53731
5381,32,53733
5382,136,53735
5383,172,53739
5384,3,53740
5385,82,53751
5386,159,53755
5387,106,53758
5388,9,53759
5389,180,53760
5390,224,53761
5391,6,53765
5392,157,53768
5393,224,53770
5394,1,53773
5395,65,53776
5396,78,53780
5397,126,53784
5398,130,53787
5399,126,53790
5400,113,53793
5401,206,53802
5402,103,53804
5403,142,53805
5404,54,53807
5405,100,53810
5406,210,53812
5407,158,53817
5408,204,36429
5409,85,36458
5410,108,36470
5411,110,36477
5412,33,36493
5413,192,36501
5414,76,36505
5415,185,36506
5416,52,36513
5417,103,36520
5418,9,36529
5419,159,36531
5420,224,36532
5421,159,36546
5422,26,36553
5423,114,36575
5424,159,36576
5425,3,36613
5426,5,36639
5427,102,36651
5428,135,36668
5429,150,36669
5430,224,36681
5431,106,36687
5432,34,36693
5433,180,36697
5434,168,36698
5435,165,36700
5436,52,36703
5437,32,36704
5438,76,36705
5439,91,36707
5440,31,57127
5441,159,57129
5442,168,57132
5443,68,57133
5444,63,57143
5445,62,57146
5446,130,57148
5447,196,57150
5448,192,57153
5449,189,57156
5450,35,57159
5451,184,57162
5452,54,57164
5453,62,57166
5454,14,57167
5455,46,57183
5456,103,57184
5457,56,57187
5458,72,57190
5459,130,57191
5460,180,57194
5461,62,57195
5462,5,57201
5463,74,57203
5464,221,57206
5465,118,57211
5466,79,57212
5467,158,57213
5468,55,57216
5469,158,57219
5470,147,57223
5471,196,57224
5472,206,52520
5473,102,52521
5474,185,52524
5475,20,52528
5476,58,52529
5477,174,52530
5478,81,52535
5479,72,52544
5480,21,52549
5481,14,52550
5482,29,52556
5483,14,52557
5484,130,52559
5485,209,52560
5486,220,52567
5487,150,52575
5488,2,52578
5489,165,52579
5490,216,52580
5491,25,52590
5492,6,52592
5493,72,52594
5494,185,52596
5495,56,52597
5496,131,52598
5497,72,52600
5498,102,52601
5499,108,52603
5500,92,52607
5501,68,52608
5502,0,52609
5503,30,52613
5504,203,21325
5505,159,21327
5506,102,21329
5507,100,21337
5508,190,21349
5509,13,21362
5510,158,21364
5511,179,21367
5512,32,21378
5513,51,21384
5514,114,21386
5515,14,21401
5516,26,21424
5517,210,21425
5518,185,21426
5519,102,21430
5520,72,21435
5521,180,21442
5522,59,21446
5523,96,21460
5524,88,21471
5525,84,21472
5526,17,21473
5527,108,21484
5528,159,21487
5529,118,21492
5530,84,21495
5531,222,21496
5532,185,21500
5533,106,21518
5534,29,21534
5535,150,21537
5536,127,41577
5537,72,41591
5538,162,41597
5539,54,41601
5540,62,41630
5541,174,41632
5542,62,41639
5543,5,41641
5544,209,41653
5545,77,41663
5546,32,41679
5547,127,41687
5548,4,41696
5549,46,41714
5550,80,41732
5551,128,41738
5552,64,41750
5553,64,41775
5554,115,41779
5555,199,41827
5556,142,41830
5557,161,41846
5558,220,41856
5559,222,41859
5560,9,41871
5561,204,41889
5562,27,41902
5563,85,41954
5564,121,41963
5565,21,41998
5566,7,42004
5567,95,42015
5568,196,34575
5569,122,34577
5570,24,34578
5571,92,34598
5572,141,34609
5573,148,34639
5574,81,34647
5575,209,34649
5576,66,34651
5577,94,34652
5578,41,34659
5579,27,34661
5580,189,34662
5581,187,34664
5582,5,34666
5583,113,34672
5584,171,34673
5585,92,34676
5586,62,34678
5587,180,34684
5588,113,34693
5589,146,34707
5590,68,34710
5591,206,34729
5592,30,34734
5593,203,34750
5594,20,34755
5595,108,34758
5596,228,34768
5597,26,34788
5598,118,34794
5599,146,34811
5600,131,615
5601,66,616
5602,44,641
5603,209,646
5604,79,647
5605,210,648
5606,64,661
5607,69,689
5608,180,691
5609,40,798
5610,108,827
5611,96,829
5612,50,832
5613,120,834
5614,216,835
5615,113,838
5616,146,849
5617,46,853
5618,41,880
5619,179,888
5620,31,916
5621,184,926
5622,62,931
5623,154,938
5624,113,941
5625,18,1028
5626,108,1051
5627,32,1071
5628,56,1096
5629,141,1184
5630,10,1238
5631,158,1242
5632,39,8698
5633,41,8703
5634,21,8705
5635,29,8713
5636,18,8718
5637,206,8727
5638,8,8732
5639,185,8742
5640,2,8744
5641,206,8757
5642,105,8772
5643,145,8791
5644,32,8794
5645,161,8797
5646,46,8800
5647,108,8801
5648,179,8808
5649,174,8820
5650,58,8826
5651,159,8838
5652,190,8841
5653,206,8850
5654,88,8851
5655,10,8852
5656,103,8856
5657,153,8865
5658,21,8883
5659,17,8889
5660,33,8894
5661,157,8900
5662,184,8903
5663,149,8923
5664,108,16390
5665,132,16401
5666,51,16403
5667,200,16404
5668,4,16405
5669,0,16411
5670,103,16420
5671,161,16456
5672,37,16459
5673,185,16463
5674,113,16470
5675,14,16475
5676,67,16484
5677,74,16486
5678,14,16489
5679,159,16494
5680,158,16498
5681,158,16503
5682,180,16535
5683,22,16537
5684,56,16547
5685,7,16554
5686,46,16555
5687,125,16565
5688,66,16573
5689,160,16578
5690,194,16579
5691,206,16580
5692,102,16596
5693,70,16601
5694,88,16614
5695,46,16629
5696,88,9512
5697,187,9527
5698,88,9540
5699,139,9545
5700,172,9557
5701,120,9578
5702,5,9599
5703,150,9606
5704,54,9612
5705,206,9614
5706,69,9625
5707,70,9632
5708,46,9635
5709,209,9643
5710,196,9688
5711,136,9701
5712,222,9710
5713,67,9716
5714,153,9725
5715,145,9729
5716,13,9752
5717,71,9754
5718,136,10730
5719,81,10795
5720,79,10902
5721,199,11959
5722,220,11969
5723,197,12029
5724,203,12132
5725,2,12184
5726,99,12363
5727,153,12509
5728,153,19702
5729,60,19726
5730,200,19731
5731,1,19737
5732,177,19744
5733,51,19754
5734,224,19763
5735,53,19780
5736,93,19781
5737,27,19792
5738,85,19805
5739,177,19809
5740,199,19812
5741,27,19817
5742,32,19830
5743,194,19832
5744,161,19843
5745,199,19850
5746,185,19856
5747,104,19859
5748,161,19874
5749,154,19875
5750,44,19877
5751,62,19882
5752,154,19899
5753,148,19900
5754,209,19919
5755,92,19927
5756,180,19932
5757,184,19935
5758,180,19938
5759,178,19944
5760,81,21990
5761,46,21991
5762,113,21996
5763,148,22009
5764,43,22011
5765,91,22023
5766,74,22031
5767,9,22032
5768,48,22044
5769,0,22046
5770,199,22059
5771,41,22060
5772,57,22095
5773,14,22106
5774,17,22110
5775,52,22117
5776,158,22122
5777,2,22160
5778,149,22183
5779,52,22192
5780,160,22194
5781,79,22197
5782,92,22203
5783,210,22207
5784,76,22224
5785,68,22230
5786,92,22243
5787,150,22245
5788,37,22253
5789,165,22258
5790,55,22266
5791,85,22270
5792,27,5312
5793,6,5327
5794,179,5372
5795,159,5374
5796,206,5408
5797,204,5419
5798,5,5423
5799,7,5424
5800,130,5489
5801,44,5501
5802,123,5504
5803,49,5512
5804,26,5519
5805,69,5544
5806,179,5673
5807,32,5733
5808,74,5777
5809,8,5841
5810,92,5898
5811,66,5967
5812,76,6002
5813,150,6092
5814,1,6151
5815,68,6201
5816,15,6202
5817,158,6215
5818,72,6230
5819,94,6242
5820,105,6244
5821,32,6246
5822,38,6264
5823,132,6274
5824,85,3928
5825,34,3958
5826,160,3962
5827,206,3971
5828,128,3992
5829,33,4040
5830,85,4075
5831,145,4093
5832,45,4103
5833,92,4106
5834,158,4110
5835,71,4136
5836,114,4166
5837,148,4169
5838,32,4195
5839,32,4216
5840,55,4253
5841,67,4298
5842,145,4300
5843,96,4336
5844,68,4396
5845,81,4400
5846,130,4402
5847,148,4416
5848,105,4428
5849,80,4481
5850,35,4505
5851,102,4507
5852,46,4526
5853,32,4550
5854,184,4552
5855,57,4554
5856,56,40512
5857,174,40669
5858,220,40688
5859,160,40895
5860,81,40976
5861,57,40993
5862,101,41029
5863,158,41081
5864,172,41125
5865,26,41165
5866,66,41218
5867,177,41228
5868,33,41240
5869,29,41347
5870,60,41380
5871,118,41432
5872,55,41466
5873,95,41510
5874,114,41521
5875,165,41541
5876,141,41552
5877,108,41556
5878,46,41608
5879,149,41680
5880,158,41698
5881,160,41771
5882,148,41780
5883,113,41817
5884,44,41839
5885,126,41900
5886,126,41950
5887,177,41971
5888,194,29802
5889,206,29805
5890,24,29808
5891,177,29811
5892,155,29812
5893,149,29821
5894,204,29825
5895,122,29826
5896,159,29828
5897,85,29835
5898,64,29843
5899,14,29851
5900,84,29860
5901,105,29868
5902,51,29869
5903,29,29871
5904,51,29874
5905,122,29896
5906,118,29898
5907,192,29899
5908,145,29903
5909,185,29915
5910,149,29917
5911,41,29921
5912,158,29939
5913,130,29940
5914,88,29956
5915,60,29965
5916,130,29967
5917,145,29969
5918,60,29971
5919,24,29981
5920,221,48639
5921,157,48651
5922,149,48668
5923,10,48674
5924,76,48676
5925,10,48683
5926,69,48685
5927,57,48693
5928,110,48697
5929,0,48709
5930,46,48716
5931,16,48720
5932,216,48728
5933,199,48749
5934,54,48750
5935,159,48756
5936,126,48764
5937,51,48768
5938,147,48769
5939,33,48773
5940,220,48805
5941,77,48833
5942,42,48853
5943,203,48859
5944,79,48861
5945,206,48862
5946,48,48874
5947,54,48883
5948,63,48904
5949,9,48912
5950,30,48924
5951,160,48928
5952,80,26898
5953,162,26914
5954,102,26915
5955,62,26917
5956,16,26918
5957,190,26929
5958,126,26933
5959,24,26937
5960,57,26946
5961,149,26958
5962,79,26963
5963,161,26966
5964,85,26972
5965,184,26973
5966,117,26976
5967,5,26977
5968,102,26978
5969,59,26980
5970,130,26983
5971,70,26986
5972,185,26991
5973,203,26999
5974,171,27012
5975,224,27016
5976,150,27018
5977,206,27020
5978,85,27024
5979,35,27028
5980,8,27033
5981,33,27035
5982,64,27048
5983,113,27051
5984,104,20442
5985,150,20449
5986,159,20451
5987,180,20453
5988,27,20458
5989,130,20460
5990,159,20471
5991,102,20484
5992,136,20495
5993,21,20498
5994,113,20524
5995,194,20546
5996,200,20548
5997,131,20551
5998,199,20559
5999,18,20568
6000,104,20583
6001,79,20589
6002,157,20592
6003,165,20594
6004,77,20597
6005,141,20602
6006,9,20604
6007,67,20611
6008,148,20624
6009,92,20640
6010,107,20641
6011,93,20643
6012,161,20662
6013,85,20681
6014,180,20689
6015,62,20695
6016,85,39547
6017,50,39555
6018,146,39563
6019,90,39568
6020,99,39570
6021,111,39571
6022,29,39575
6023,194,39576
6024,88,39579
6025,105,39580
6026,17,39581
6027,185,39590
6028,178,39592
6029,200,39596
6030,150,39598
6031,132,39606
6032,15,39615
6033,28,39625
6034,159,39635
6035,32,39666
6036,49,39674
6037,159,39680
6038,105,39696
6039,228,39712
6040,60,39719
6041,203,39721
6042,220,39731
6043,206,39739
6044,79,39745
6045,150,39750
6046,150,39757
6047,149,39758
6048,44,13364
6049,177,13382
6050,56,13428
6051,89,13435
6052,118,13437
6053,159,13440
6054,94,13445
6055,4,13446
6056,177,13456
6057,9,13473
6058,155,13492
6059,5,13504
6060,177,13508
6061,85,13511
6062,51,13533
6063,158,13541
6064,161,13546
6065,101,13557
6066,103,13574
6067,196,13576
6068,9,13582
6069,14,13584
6070,108,13593
6071,69,13628
6072,57,13636
6073,127,13654
6074,77,13656
6075,150,13659
6076,17,13662
6077,2,13678
6078,160,13680
6079,62,13682
6080,51,43710
6081,38,43714
6082,32,43718
6083,121,43729
6084,17,43730
6085,180,43734
6086,105,43738
6087,224,43740
6088,37,43741
6089,108,43743
6090,99,43746
6091,102,43748
6092,85,43751
6093,95,43752
6094,0,43753
6095,147,43755
6096,127,43756
6097,52,43759
6098,141,43768
6099,7,43769
6100,30,43770
6101,210,43776
6102,44,43777
6103,7,43779
6104,6,43783
6105,114,43788
6106,100,43790
6107,83,43791
6108,172,43793
6109,9,43796
6110,210,43798
6111,74,43800
6112,107,17030
6113,60,17055
6114,19,17077
6115,146,17119
6116,51,17124
6117,113,17134
6118,39,17140
6119,210,17154
6120,66,17169
6121,1,17265
6122,224,17295
6123,62,17330
6124,209,17348
6125,94,17404
6126,13,17425
6127,26,17462
6128,184,17521
6129,41,17558
6130,184,17570
6131,187,17582
6132,131,17586
6133,117,17621
6134,178,17625
6135,159,17637
6136,51,17693
6137,63,17695
6138,3,17704
6139,34,17709
6140,184,17754
6141,155,17826
6142,196,17831
6143,224,17854
6144,74,28988
6145,105,28990
6146,24,28996
6147,192,28997
6148,14,28998
6149,46,28999
6150,8,29004
6151,74,29006
6152,192,29007
6153,203,29010
6154,17,29019
6155,174,29021
6156,78,29022
6157,51,29027
6158,95,29029
6159,118,29031
6160,158,29036
6161,206,29038
6162,56,29044
6163,117,29047
6164,14,29054
6165,179,29059
6166,125,29060
6167,34,29063
6168,194,29069
6169,209,29070
6170,117,29071
6171,58,29073
6172,128,29078
6173,8,29081
6174,74,29086
6175,130,29089
6176,51,20163
6177,44,20197
6178,99,20220
6179,101,20225
6180,206,20253
6181,38,20254
6182,51,20257
6183,158,20294
6184,224,20304
6185,70,20325
6186,178,20326
6187,113,20330
6188,228,20354
6189,207,20369
6190,145,20373
6191,26,20378
6192,26,20383
6193,184,20386
6194,159,20393
6195,192,20395
6196,179,20396
6197,67,20413
6198,209,20417
6199,65,20426
6200,92,20433
6201,222,20441
6202,204,20443
6203,76,20456
6204,32,20462
6205,99,20473
6206,72,20481
6207,178,20497
6208,81,4257
6209,159,4342
6210,8,4472
6211,74,4502
6212,114,4509
6213,158,4519
6214,126,4582
6215,118,4646
6216,209,4672
6217,184,4756
6218,46,4795
6219,79,4806
6220,10,4808
6221,148,4809
6222,2,4830
6223,222,4835
6224,105,4881
6225,154,4888
6226,55,5231
6227,8,5239
6228,32,5255
6229,206,5297
6230,26,5391
6231,81,5438
6232,102,5858
6233,81,5914
6234,9,6168
6235,32,6471
6236,150,6490
6237,6,6615
6238,32,6669
6239,179,7564
6240,51,54461
6241,34,54469
6242,178,54470
6243,2,54471
6244,99,54472
6245,147,54473
6246,26,54476
6247,107,54479
6248,179,54480
6249,172,54481
6250,53,54488
6251,196,54493
6252,102,54496
6253,93,54501
6254,115,54503
6255,133,54504
6256,54,54506
6257,102,54509
6258,150,54515
6259,76,54516
6260,161,54520
6261,199,54523
6262,194,54532
6263,121,54533
6264,53,54537
6265,54,54541
6266,6,54543
6267,206,54546
6268,141,54547
6269,21,54548
6270,32,54552
6271,114,54559
6272,162,15242
6273,204,15259
6274,64,15262
6275,157,15267
6276,21,15274
6277,108,15319
6278,178,15325
6279,130,15340
6280,108,15341
6281,20,15344
6282,105,15350
6283,150,15366
6284,221,15373
6285,3,15386
6286,56,15403
6287,77,15419
6288,115,15424
6289,35,15442
6290,221,15448
6291,142,15451
6292,74,15456
6293,21,15489
6294,224,15497
6295,43,15507
6296,185,15533
6297,107,15537
6298,159,15549
6299,192,15550
6300,190,15565
6301,79,15575
6302,209,15588
6303,197,15600
6304,111,39742
6305,7,39744
6306,117,39747
6307,27,39748
6308,102,39751
6309,15,39752
6310,113,39756
6311,114,39761
6312,132,39762
6313,51,39773
6314,79,39776
6315,158,39777
6316,35,39783
6317,0,39794
6318,92,39795
6319,51,39801
6320,197,39802
6321,187,39822
6322,103,39825
6323,5,39827
6324,209,39830
6325,160,39837
6326,68,39843
6327,162,39844
6328,51,39847
6329,158,39849
6330,102,39850
6331,96,39852
6332,32,39857
6333,159,39861
6334,131,39863
6335,58,39867
6336,109,8195
6337,101,8203
6338,113,8213
6339,41,8232
6340,174,8282
6341,102,8370
6342,99,8377
6343,150,8391
6344,200,8434
6345,153,8457
6346,146,8472
6347,44,8591
6348,172,8724
6349,30,8760
6350,6,8799
6351,5,8823
6352,99,8849
6353,85,8914
6354,32,8928
6355,29,8969
6356,103,8994
6357,52,9064
6358,142,9136
6359,179,9156
6360,179,9169
6361,19,9261
6362,159,9397
6363,2,9529
6364,145,9534
6365,44,9597
6366,81,9608
6367,121,9717
6368,32,2071
6369,74,2092
6370,64,2108
6371,38,2134
6372,72,2137
6373,110,2160
6374,42,2164
6375,108,2191
6376,64,2192
6377,113,2224
6378,154,2237
6379,102,2243
6380,69,2258
6381,91,2286
6382,0,2304
6383,4,2313
6384,101,2334
6385,114,2344
6386,56,2349
6387,159,2352
6388,158,2363
6389,68,2371
6390,10,2400
6391,99,2404
6392,189,2413
6393,114,2414
6394,1,2417
6395,189,2424
6396,154,2432
6397,76,2454
6398,161,2464
6399,153,2471
6400,81,16495
6401,154,16512
6402,32,16522
6403,74,16557
6404,68,16607
6405,25,16610
6406,58,16619
6407,113,16633
6408,228,16675
6409,71,16681
6410,180,16688
6411,161,16702
6412,228,16728
6413,209,16730
6414,77,16736
6415,30,16750
6416,14,16761
6417,114,16776
6418,55,16786
6419,84,16797
6420,146,16800
6421,0,16801
6422,128,16828
6423,21,16847
6424,153,16871
6425,52,16897
6426,18,16908
6427,52,16915
6428,130,16930
6429,142,16933
6430,130,16996
6431,158,17017
6432,30,25376
6433,6,25417
6434,135,25427
6435,14,25438
6436,89,25441
6437,85,25453
6438,199,25466
6439,118,25507
6440,81,25540
6441,203,25566
6442,74,25572
6443,210,25592
6444,37,25799
6445,26,25823
6446,51,25831
6447,130,25835
6448,60,25855
6449,184,25934
6450,34,25998
6451,146,26019
6452,159,26035
6453,174,26054
6454,92,26067
6455,108,26092
6456,67,26093
6457,12,26157
6458,54,26191
6459,88,26211
6460,21,26224
6461,87,26240
6462,55,26260
6463,146,26478
6464,206,50704
6465,35,50705
6466,66,50708
6467,83,50709
6468,145,50713
6469,126,50715
6470,51,50718
6471,51,50720
6472,158,50721
6473,100,50722
6474,127,50723
6475,102,50725
6476,63,50727
6477,206,50729
6478,109,50731
6479,92,50734
6480,178,50735
6481,14,50737
6482,2,50740
6483,222,50742
6484,55,50746
6485,69,50748
6486,197,50749
6487,35,50751
6488,79,50752
6489,206,50760
6490,179,50761
6491,209,50763
6492,95,50764
6493,125,50766
6494,107,50767
6495,198,50768
6496,113,30990
6497,200,30994
6498,194,30995
6499,5,31032
6500,19,31037
6501,10,31047
6502,103,31076
6503,2,31078
6504,39,31094
6505,149,31116
6506,48,31138
6507,185,31147
6508,224,31153
6509,161,31157
6510,26,31161
6511,113,31167
6512,200,31186
6513,125,31193
6514,103,31200
6515,102,31214
6516,49,31216
6517,107,31221
6518,209,31222
6519,37,31223
6520,66,31244
6521,100,31249
6522,103,31253
6523,43,31268
6524,26,31272
6525,74,31274
6526,7,31278
6527,72,31281
6528,82,16343
6529,122,16417
6530,2,16437
6531,34,16729
6532,185,16862
6533,77,16910
6534,94,16957
6535,113,17080
6536,24,17135
6537,221,17137
6538,184,17142
6539,73,17161
6540,220,17301
6541,60,17305
6542,179,17319
6543,222,17448
6544,89,18119
6545,159,18266
6546,177,18301
6547,222,18316
6548,82,18360
6549,60,18480
6550,126,18545
6551,158,18592
6552,51,18679
6553,9,18906
6554,150,19293
6555,69,19602
6556,146,21041
6557,160,21049
6558,101,21245
6559,206,21267
6560,66,1681
6561,74,1686
6562,0,1689
6563,136,1706
6564,85,1718
6565,130,1732
6566,74,1733
6567,21,1747
6568,200,1814
6569,165,1819
6570,91,1837
6571,65,1845
6572,43,1855
6573,108,1867
6574,118,1868
6575,146,1896
6576,81,1901
6577,128,1926
6578,5,1950
6579,190,1957
6580,92,1978
6581,103,1983
6582,32,1996
6583,5,2018
6584,159,2027
6585,58,2051
6586,141,2073
6587,145,2075
6588,136,2084
6589,60,2122
6590,148,2142
6591,102,2155
6592,161,18799
6593,222,18802
6594,72,18813
6595,161,18814
6596,199,18824
6597,19,18825
6598,32,18827
6599,122,18829
6600,96,18830
6601,178,18851
6602,64,18862
6603,49,18864
6604,62,18869
6605,224,18871
6606,125,18876
6607,228,18889
6608,68,18895
6609,142,18899
6610,203,18910
6611,69,18913
6612,157,18936
6613,132,18953
6614,0,18960
6615,95,18965
6616,165,18969
6617,77,18977
6618,105,18983
6619,220,18990
6620,172,19000
6621,147,19005
6622,209,19007
6623,139,19011
6624,66,52616
6625,79,52620
6626,0,52626
6627,28,52627
6628,57,52628
6629,165,52629
6630,38,52631
6631,159,52640
6632,41,52642
6633,178,52646
6634,185,52647
6635,100,52648
6636,118,52649
6637,209,52653
6638,224,52656
6639,131,52659
6640,45,52666
6641,162,52668
6642,184,52673
6643,20,52674
6644,146,52675
6645,70,52679
6646,148,52681
6647,165,52683
6648,206,52684
6649,44,52687
6650,149,52688
6651,128,52695
6652,107,52697
6653,94,52699
6654,58,52703
6655,157,52707
6656,146,298
6657,108,327
6658,158,333
6659,42,350
6660,141,359
6661,153,432
6662,105,438
6663,172,456
6664,85,466
6665,46,472
6666,88,490
6667,46,493
6668,5,508
6669,203,517
6670,145,521
6671,9,523
6672,72,550
6673,130,554
6674,158,556
6675,9,579
6676,94,583
6677,68,585
6678,118,586
6679,115,588
6680,103,600
6681,10,631
6682,172,637
6683,132,642
6684,179,668
6685,5,675
6686,10,679
6687,105,685
6688,107,56156
6689,180,56157
6690,154,56158
6691,220,56159
6692,44,56161
6693,84,56164
6694,154,56165
6695,24,56167
6696,108,56172
6697,81,56173
6698,67,56174
6699,172,56176
6700,197,56177
6701,52,56178
6702,221,56180
6703,95,56184
6704,0,56185
6705,51,56186
6706,161,56190
6707,46,56191
6708,199,56195
6709,80,56198
6710,206,56200
6711,130,56201
6712,26,56203
6713,210,56204
6714,161,56207
6715,190,56208
6716,136,56209
6717,206,56213
6718,159,56215
6719,46,56216
6720,52,50985
6721,24,50987
6722,204,50988
6723,32,50989
6724,59,50991
6725,178,50997
6726,6,51003
6727,16,51004
6728,158,51005
6729,1,51006
6730,8,51007
6731,180,51010
6732,15,51012
6733,161,51014
6734,148,51015
6735,194,51016
6736,67,51018
6737,7,51020
6738,32,51023
6739,33,51028
6740,128,51037
6741,179,51038
6742,99,51040
6743,27,51041
6744,108,51043
6745,121,51047
6746,185,51048
6747,15,51052
6748,228,51054
6749,84,51055
6750,43,51064
6751,19,51066
6752,145,26439
6753,102,26448
6754,118,26449
6755,161,26451
6756,69,26452
6757,58,26454
6758,204,26465
6759,210,26473
6760,206,26476
6761,192,26484
6762,147,26486
6763,9,26489
6764,135,26516
6765,128,26517
6766,88,26524
6767,17,26536
6768,54,26541
6769,131,26544
6770,108,26548
6771,76,26550
6772,102,26553
6773,197,26564
6774,66,26568
6775,141,26574
6776,63,26592
6777,1,26607
6778,126,26613
6779,79,26615
6780,35,26617
6781,185,26639
6782,92,26642
6783,209,26644
6784,220,10878
6785,96,10890
6786,171,10904
6787,51,10914
6788,222,10921
6789,139,10954
6790,31,10976
6791,92,10977
6792,102,10985
6793,8,10994
6794,158,11007
6795,55,11010
6796,74,11017
6797,141,11039
6798,32,11044
6799,204,11066
6800,135,11071
6801,71,11094
6802,69,11098
6803,44,11117
6804,140,11126
6805,51,11144
6806,135,11159
6807,0,11160
6808,118,11161
6809,28,11196
6810,216,11224
6811,117,11228
6812,125,11231
6813,189,11232
6814,142,11245
6815,31,11260
6816,26,42106
6817,71,42108
6818,159,42110
6819,131,42111
6820,30,42114
6821,159,42118
6822,60,42124
6823,57,42125
6824,94,42134
6825,148,42135
6826,126,42137
6827,165,42139
6828,118,42148
6829,95,42153
6830,200,42157
6831,26,42158
6832,33,42159
6833,38,42174
6834,154,42177
6835,59,42178
6836,161,42188
6837,104,42192
6838,7,42202
6839,161,42203
6840,142,42206
6841,114,42208
6842,68,42209
6843,9,42212
6844,180,42213
6845,88,42215
6846,1,42218
6847,159,42224
6848,103,50207
6849,145,50209
6850,220,50212
6851,17,50215
6852,139,50216
6853,16,50221
6854,125,50225
6855,154,50227
6856,158,50230
6857,153,50231
6858,72,50232
6859,157,50233
6860,157,50236
6861,79,50238
6862,177,50239
6863,123,50242
6864,155,50244
6865,30,50248
6866,103,50253
6867,7,50254
6868,200,50256
6869,150,50258
6870,189,50259
6871,101,50260
6872,132,50261
6873,93,50264
6874,32,50265
6875,174,50266
6876,66,50268
6877,130,50271
6878,189,50272
6879,130,50273
6880,204,12263
6881,92,12282
6882,24,12285
6883,141,12292
6884,14,12307
6885,146,12310
6886,204,12345
6887,146,12359
6888,85,12371
6889,145,12383
6890,149,12385
6891,74,12389
6892,146,12402
6893,196,12409
6894,159,12414
6895,72,12423
6896,129,12433
6897,157,12438
6898,84,12444
6899,148,12450
6900,52,12460
6901,5,12477
6902,77,12507
6903,172,12526
6904,38,12539
6905,51,12567
6906,99,12572
6907,1,12585
6908,52,12590
6909,7,12612
6910,165,12624
6911,150,12625
6912,220,27230
6913,194,27232
6914,114,27252
6915,199,27255
6916,52,27259
6917,17,27263
6918,33,27279
6919,141,27287
6920,185,27294
6921,224,27295
6922,228,27307
6923,220,27315
6924,146,27318
6925,67,27323
6926,228,27333
6927,83,27342
6928,165,27358
6929,5,27359
6930,180,27364
6931,224,27373
6932,159,27390
6933,68,27391
6934,82,27395
6935,162,27398
6936,148,27400
6937,220,27420
6938,88,27425
6939,6,27426
6940,209,27427
6941,38,27432
6942,147,27439
6943,179,27443
6944,17,29222
6945,159,29225
6946,32,29226
6947,178,29238
6948,66,29251
6949,220,29254
6950,199,29256
6951,48,29266
6952,2,29268
6953,100,29290
6954,103,29292
6955,81,29311
6956,68,29335
6957,184,29348
6958,46,29355
6959,15,29357
6960,102,29360
6961,122,29386
6962,145,29403
6963,6,29449
6964,189,29450
6965,149,29461
6966,209,29469
6967,206,29485
6968,107,29493
6969,92,29502
6970,108,29505
6971,66,29525
6972,131,29527
6973,146,29541
6974,147,29548
6975,52,29553
6976,146,11034
6977,184,11073
6978,118,11104
6979,34,11178
6980,9,11249
6981,136,11546
6982,204,11547
6983,200,11646
6984,184,11690
6985,102,11703
6986,95,11722
6987,128,11735
6988,49,11748
6989,207,11815
6990,159,11829
6991,184,11834
6992,51,11842
6993,17,11877
6994,110,11881
6995,174,11902
6996,161,11970
6997,145,12139
6998,68,12208
6999,69,12390
7000,72,12511
7001,99,12517
7002,150,12518
7003,34,12528
7004,67,12529
7005,15,12580
7006,228,12611
7007,117,12990
7008,99,1438
7009,187,1445
7010,68,1449
7011,206,1460
7012,165,1481
7013,103,1498
7014,4,1513
7015,88,1525
7016,99,1527
7017,130,1533
7018,60,1542
7019,194,1550
7020,88,1560
7021,8,1567
7022,28,1592
7023,69,1596
7024,85,1599
7025,189,1609
7026,105,1611
7027,0,1615
7028,77,1617
7029,46,1631
7030,84,1645
7031,159,1739
7032,57,1769
7033,178,1800
7034,37,1803
7035,33,1813
7036,32,1910
7037,196,1916
7038,88,1924
7039,71,1929
7040,150,20867
7041,46,20877
7042,178,20920
7043,10,20935
7044,194,20938
7045,4,20987
7046,14,20991
7047,161,21020
7048,142,21025
7049,30,21048
7050,74,21069
7051,19,21071
7052,128,21078
7053,88,21092
7054,9,21098
7055,35,21099
7056,108,21110
7057,6,21116
7058,150,21180
7059,95,21195
7060,74,21201
7061,104,21215
7062,154,21216
7063,81,21236
7064,146,21263
7065,88,21298
7066,32,21300
7067,94,21322
7068,42,21323
7069,128,21335
7070,224,21355
7071,90,21376
7072,103,18143
7073,51,18145
7074,132,18154
7075,99,18163
7076,196,18177
7077,101,18190
7078,108,18195
7079,105,18220
7080,63,18221
7081,210,18240
7082,222,18294
7083,194,18299
7084,148,18315
7085,7,18317
7086,160,18320
7087,62,18340
7088,30,18345
7089,85,18358
7090,51,18373
7091,158,18374
7092,187,18375
7093,159,18376
7094,158,18377
7095,5,18381
7096,184,18383
7097,222,18404
7098,18,18423
7099,179,18427
7100,60,18432
7101,77,18440
7102,3,18459
7103,32,18464
7104,194,8239
7105,184,8256
7106,209,8286
7107,153,8320
7108,174,8327
7109,145,8331
7110,32,8378
7111,76,8417
7112,125,8420
7113,85,8443
7114,141,8456
7115,14,8487
7116,1,8495
7117,26,8507
7118,210,8575
7119,165,8582
7120,29,8588
7121,204,8595
7122,220,8637
7123,68,8644
7124,187,8646
7125,178,8656
7126,49,8687
7127,179,8696
7128,145,8708
7129,185,8709
7130,88,8729
7131,53,8733
7132,200,8753
7133,38,8793
7134,96,8806
7135,26,8817
7136,102,51836
7137,30,51874
7138,104,51887
7139,177,51892
7140,206,51894
7141,51,51927
7142,106,51928
7143,77,51944
7144,135,51946
7145,162,52009
7146,74,52075
7147,200,52112
7148,118,52126
7149,83,52140
7150,220,52206
7151,158,52222
7152,80,52223
7153,42,52267
7154,95,52309
7155,9,52351
7156,180,52361
7157,15,52402
7158,80,52421
7159,37,52422
7160,3,52430
7161,174,52457
7162,26,52462
7163,178,52480
7164,5,52498
7165,32,52527
7166,7,52552
7167,179,52564
7168,147,41338
7169,102,41340
7170,57,41341
7171,46,41349
7172,184,41352
7173,15,41358
7174,37,41362
7175,102,41363
7176,221,41370
7177,37,41376
7178,158,41379
7179,187,41384
7180,114,41386
7181,53,41387
7182,88,41389
7183,171,41393
7184,180,41394
7185,78,41395
7186,10,41399
7187,159,41401
7188,44,41405
7189,56,41406
7190,118,41410
7191,27,41411
7192,72,41418
7193,15,41420
7194,81,41424
7195,128,41425
7196,14,41426
7197,68,41447
7198,6,41451
7199,17,41454
7200,158,45064
7201,9,45065
7202,113,45069
7203,52,45070
7204,130,45076
7205,108,45077
7206,150,45084
7207,146,45088
7208,52,45089
7209,72,45090
7210,11,45091
7211,131,45093
7212,199,45094
7213,56,45101
7214,102,45106
7215,65,45110
7216,228,45112
7217,216,45113
7218,100,45116
7219,81,45117
7220,145,45118
7221,180,45125
7222,159,45139
7223,66,45156
7224,199,45159
7225,158,45160
7226,221,45164
7227,180,45167
7228,149,45168
7229,81,45171
7230,132,45182
7231,179,45184
7232,72,1897
7233,81,3801
7234,224,4032
7235,35,4044
7236,17,4085
7237,146,4256
7238,200,4624
7239,66,4883
7240,99,5129
7241,136,5482
7242,114,5527
7243,80,7690
7244,81,11129
7245,1,986
7246,5,1215
7247,28,1216
7248,72,1226
7249,93,1276
7250,85,1401
7251,4,1725
7252,148,1792
7253,7,2036
7254,95,2973
7255,81,3068
7256,77,3545
7257,29,3711
7258,159,3723
7259,66,3791
7260,95,4000
7261,96,4146
7262,7,4595
7263,64,5280
7264,160,42228
7265,118,42232
7266,190,42235
7267,161,42236
7268,103,42237
7269,180,42239
7270,58,42241
7271,153,42242
7272,36,42249
7273,161,42251
7274,27,42261
7275,155,42266
7276,7,42268
7277,91,42276
7278,150,42277
7279,106,42287
7280,146,42291
7281,5,42292
7282,114,42302
7283,114,42307
7284,101,42308
7285,145,42317
7286,102,42320
7287,17,42322
7288,26,42325
7289,150,42328
7290,180,42338
7291,78,42339
7292,77,42340
7293,184,42343
7294,103,42346
7295,109,42347
7296,154,56148
7297,199,56150
7298,146,56160
7299,63,56162
7300,114,56169
7301,107,56171
7302,32,56175
7303,122,56179
7304,146,56181
7305,72,56182
7306,177,56183
7307,44,56187
7308,206,56202
7309,128,56205
7310,159,56206
7311,187,56210
7312,118,56211
7313,57,56214
7314,66,56217
7315,161,56220
7316,159,56229
7317,35,56231
7318,14,56239
7319,178,56240
7320,64,56252
7321,224,56256
7322,95,56260
7323,114,56261
7324,30,56262
7325,80,56270
7326,37,56285
7327,27,56287
7328,63,18275
7329,161,18278
7330,74,18282
7331,165,18295
7332,6,18303
7333,206,18307
7334,6,18310
7335,17,18311
7336,85,18321
7337,26,18326
7338,7,18334
7339,76,18343
7340,46,18356
7341,148,18363
7342,145,18364
7343,145,18365
7344,8,18369
7345,97,18411
7346,155,18429
7347,5,18436
7348,141,18439
7349,177,18471
7350,38,18486
7351,17,18487
7352,102,18488
7353,150,18494
7354,103,18504
7355,200,18507
7356,146,18508
7357,14,18510
7358,63,18522
7359,51,18530
7360,105,10413
7361,141,10428
7362,76,10433
7363,190,10444
7364,161,10453
7365,189,10483
7366,95,10485
7367,51,10493
7368,93,10506
7369,203,10521
7370,35,10527
7371,83,10534
7372,177,10537
7373,60,10550
7374,96,10558
7375,38,10571
7376,0,10586
7377,113,10638
7378,68,10639
7379,70,10655
7380,32,10662
7381,122,10682
7382,76,10698
7383,114,10704
7384,27,10721
7385,44,10727
7386,26,10733
7387,197,10741
7388,189,10744
7389,68,10746
7390,27,10796
7391,81,10802
7392,102,20429
7393,147,20461
7394,136,20476
7395,46,20478
7396,142,20480
7397,79,20490
7398,77,20492
7399,2,20496
7400,60,20501
7401,57,20509
7402,224,20516
7403,33,20527
7404,150,20539
7405,111,20542
7406,13,20552
7407,101,20563
7408,189,20573
7409,18,20574
7410,32,20593
7411,73,20614
7412,185,20617
7413,179,20628
7414,32,20629
7415,155,20637
7416,79,20645
7417,100,20648
7418,228,20652
7419,113,20656
7420,184,20659
7421,192,20667
7422,194,20670
7423,41,20678
7424,96,26043
7425,14,26045
7426,76,26047
7427,80,26050
7428,0,26068
7429,94,26070
7430,8,26076
7431,135,26083
7432,24,26085
7433,125,26086
7434,0,26089
7435,148,26102
7436,113,26112
7437,85,26125
7438,132,26126
7439,93,26129
7440,21,26142
7441,2,26145
7442,221,26148
7443,224,26152
7444,145,26159
7445,146,26166
7446,32,26169
7447,81,26172
7448,127,26178
7449,142,26179
7450,149,26184
7451,139,26189
7452,145,26190
7453,210,26200
7454,184,26213
7455,21,26215
7456,42,40606
7457,53,40626
7458,222,40630
7459,71,40723
7460,106,40745
7461,109,40818
7462,228,40842
7463,8,40961
7464,44,40982
7465,7,41021
7466,93,41023
7467,161,41033
7468,228,41048
7469,59,41086
7470,135,41100
7471,165,41154
7472,110,41202
7473,135,41203
7474,90,41204
7475,46,41229
7476,1,41241
7477,44,41274
7478,99,41279
7479,146,41283
7480,68,41304
7481,185,41308
7482,153,41323
7483,62,41324
7484,57,41350
7485,92,41375
7486,24,41383
7487,78,41404
7488,26,31482
7489,194,31534
7490,131,31547
7491,128,31559
7492,180,31625
7493,179,31660
7494,165,31703
7495,159,31725
7496,99,31747
7497,93,31753
7498,64,31762
7499,13,31766
7500,121,31772
7501,29,31780
7502,228,31781
7503,66,31782
7504,32,31795
7505,74,31797
7506,79,31812
7507,209,31816
7508,35,31847
7509,114,31853
7510,56,31861
7511,130,31863
7512,224,31871
7513,115,31887
7514,105,31906
7515,2,31908
7516,216,31925
7517,72,31926
7518,91,31929
7519,83,31931
7520,130,26117
7521,43,26119
7522,220,26120
7523,113,26123
7524,224,26128
7525,85,26136
7526,62,26146
7527,157,26150
7528,130,26154
7529,71,26156
7530,178,26171
7531,184,26181
7532,95,26187
7533,85,26192
7534,38,26194
7535,209,26195
7536,6,26196
7537,28,26198
7538,115,26207
7539,78,26214
7540,220,26216
7541,224,26218
7542,192,26250
7543,105,26256
7544,44,26267
7545,149,26269
7546,10,26274
7547,24,26279
7548,220,26282
7549,85,26283
7550,131,26287
7551,187,26292
7552,96,36820
7553,153,36821
7554,66,36825
7555,32,36833
7556,185,36834
7557,142,36850
7558,69,36856
7559,97,36857
7560,180,36868
7561,154,36881
7562,178,36886
7563,20,36889
7564,118,36896
7565,62,36899
7566,34,36910
7567,52,36911
7568,114,36922
7569,46,36938
7570,206,36944
7571,184,36945
7572,14,36947
7573,130,36948
7574,96,36949
7575,85,36950
7576,153,36952
7577,114,36964
7578,19,36970
7579,117,36971
7580,69,36973
7581,63,36976
7582,60,36978
7583,57,36980
7584,102,20314
7585,54,20319
7586,150,20332
7587,220,20333
7588,200,20334
7589,7,20340
7590,95,20345
7591,174,20355
7592,85,20362
7593,56,20365
7594,131,20368
7595,158,20376
7596,81,20398
7597,135,20403
7598,192,20436
7599,135,20437
7600,7,20446
7601,46,20466
7602,85,20596
7603,196,20658
7604,7,20665
7605,121,20699
7606,158,20728
7607,126,20729
7608,32,20747
7609,32,20778
7610,41,20802
7611,129,20817
7612,9,20841
7613,44,20864
7614,117,20993
7615,196,21035
7616,194,8294
7617,1,8295
7618,9,8299
7619,216,8305
7620,199,8306
7621,187,8310
7622,161,8328
7623,113,8337
7624,32,8338
7625,17,8339
7626,114,8350
7627,141,8351
7628,128,8358
7629,184,8362
7630,81,8379
7631,105,8386
7632,184,8388
7633,145,8402
7634,10,8416
7635,68,8422
7636,105,8430
7637,153,8437
7638,57,8439
7639,56,8441
7640,153,8451
7641,108,8455
7642,171,8458
7643,30,8463
7644,52,8464
7645,79,8471
7646,136,8473
7647,126,8475
7648,30,27111
7649,57,27117
7650,92,27119
7651,84,27124
7652,101,27129
7653,206,27132
7654,150,27133
7655,77,27134
7656,141,27137
7657,130,27142
7658,2,27146
7659,2,27147
7660,130,27151
7661,85,27164
7662,18,27169
7663,171,27171
7664,172,27175
7665,148,27177
7666,63,27179
7667,32,27183
7668,126,27184
7669,149,27185
7670,20,27186
7671,65,27187
7672,114,27193
7673,74,27194
7674,79,27199
7675,171,27200
7676,32,27207
7677,52,27221
7678,154,27223
7679,37,27224
7680,51,43033
7681,68,43048
7682,209,43049
7683,20,43060
7684,147,43061
7685,37,43065
7686,102,43084
7687,145,43095
7688,14,43096
7689,187,43099
7690,160,43130
7691,192,43139
7692,41,43144
7693,123,43146
7694,159,43149
7695,67,43155
7696,74,43165
7697,222,43180
7698,14,43182
7699,221,43184
7700,141,43189
7701,27,43193
7702,32,43216
7703,84,43219
7704,46,43240
7705,64,43247
7706,185,43254
7707,107,43269
7708,103,43270
7709,200,43281
7710,102,43282
7711,21,43287
7712,1,3979
7713,99,3980
7714,153,3996
7715,23,4006
7716,120,4009
7717,29,4038
7718,56,4055
7719,141,4061
7720,220,4070
7721,194,4082
7722,222,4086
7723,81,4094
7724,35,4123
7725,221,4143
7726,54,4164
7727,125,4170
7728,224,4175
7729,221,4236
7730,9,4275
7731,69,4276
7732,16,4280
7733,62,4283
7734,209,4299
7735,158,4324
7736,70,4327
7737,159,4359
7738,132,4369
7739,159,4383
7740,178,4394
7741,103,4401
7742,84,4412
7743,158,4437
7744,92,42309
7745,62,42310
7746,92,42311
7747,148,42314
7748,21,42329
7749,67,42330
7750,141,42345
7751,32,42355
7752,71,42361
7753,178,42369
7754,209,42370
7755,9,42377
7756,82,42390
7757,60,42395
7758,228,42411
7759,99,42412
7760,51,42422
7761,42,42425
7762,96,42431
7763,113,42444
7764,209,42450
7765,14,42457
7766,92,42469
7767,161,42477
7768,190,42491
7769,6,42501
7770,192,42507
7771,204,42511
7772,110,42542
7773,220,42543
7774,100,42548
7775,187,42549
7776,60,49913
7777,95,49914
7778,153,49920
7779,19,49922
7780,114,49925
7781,0,49931
7782,210,49934
7783,58,49950
7784,141,49978
7785,141,50000
7786,114,50008
7787,1,50009
7788,56,50010
7789,109,50012
7790,149,50017
7791,46,50025
7792,209,50028
7793,209,50037
7794,6,50045
7795,148,50053
7796,194,50055
7797,222,50057
7798,148,50083
7799,149,50088
7800,87,50094
7801,136,50096
7802,26,50099
7803,200,50101
7804,194,50115
7805,224,50128
7806,216,50146
7807,13,50149
7808,117,34576
7809,149,34588
7810,74,34607
7811,102,34610
7812,74,34611
7813,157,34614
7814,204,34621
7815,7,34624
7816,146,34626
7817,146,34632
7818,159,34634
7819,192,34648
7820,130,34656
7821,58,34680
7822,8,34690
7823,171,34702
7824,102,34717
7825,149,34724
7826,85,34726
7827,139,34730
7828,107,34737
7829,55,34743
7830,209,34785
7831,21,34799
7832,148,34818
7833,136,34821
7834,69,34841
7835,224,34845
7836,172,34854
7837,88,34880
7838,210,34894
7839,206,34918
7840,67,35587
7841,29,35614
7842,43,35616
7843,62,35626
7844,209,35647
7845,92,35664
7846,180,35667
7847,178,35717
7848,33,35722
7849,177,35743
7850,34,35759
7851,210,35774
7852,85,35794
7853,63,35811
7854,85,35812
7855,10,35839
7856,216,35840
7857,7,35856
7858,92,35859
7859,110,35871
7860,196,35893
7861,192,35916
7862,121,35930
7863,68,35946
7864,35,35959
7865,203,35971
7866,92,35985
7867,122,35986
7868,150,35995
7869,15,36000
7870,101,36001
7871,67,36006
7872,85,51953
7873,2,51954
7874,199,51958
7875,74,51960
7876,10,51966
7877,118,51974
7878,135,51978
7879,29,51979
7880,21,51984
7881,149,51986
7882,15,51991
7883,159,51996
7884,165,52001
7885,179,52004
7886,108,52005
7887,34,52007
7888,28,52011
7889,77,52014
7890,84,52019
7891,0,52020
7892,194,52021
7893,210,52023
7894,185,52024
7895,95,52025
7896,228,52026
7897,107,52029
7898,121,52032
7899,74,52034
7900,147,52038
7901,99,52041
7902,71,52043
7903,146,52045
7904,178,29090
7905,7,29091
7906,69,29094
7907,222,29096
7908,146,29097
7909,165,29099
7910,122,29100
7911,159,29102
7912,104,29111
7913,87,29115
7914,64,29118
7915,38,29119
7916,26,29134
7917,26,29142
7918,57,29145
7919,81,29148
7920,14,29155
7921,221,29164
7922,45,29166
7923,85,29177
7924,159,29180
7925,125,29184
7926,160,29189
7927,99,29195
7928,206,29198
7929,30,29208
7930,148,29213
7931,117,29215
7932,204,29217
7933,9,29232
7934,51,29241
7935,32,29242
7936,147,22280
7937,120,22284
7938,32,22288
7939,2,22291
7940,194,22299
7941,34,22309
7942,135,22319
7943,100,22322
7944,85,22323
7945,32,22333
7946,94,22340
7947,149,22366
7948,196,22376
7949,150,22393
7950,57,22399
7951,93,22402
7952,30,22408
7953,76,22420
7954,74,22427
7955,147,22444
7956,178,22451
7957,180,22466
7958,206,22480
7959,155,22481
7960,32,22482
7961,220,22489
7962,197,22494
7963,76,22495
7964,150,22497
7965,26,22502
7966,203,22516
7967,9,22517
7968,171,39245
7969,108,39391
7970,114,39407
7971,125,39437
7972,159,39452
7973,52,39587
7974,0,39604
7975,32,39633
7976,60,39682
7977,3,39833
7978,148,39891
7979,3,40318
7980,77,40487
7981,190,40600
7982,101,40800
7983,204,41064
7984,88,41088
7985,204,41148
7986,6,41151
7987,62,41367
7988,103,41382
7989,194,41436
7990,92,41580
7991,74,41718
7992,171,41841
7993,131,41887
7994,99,41975
7995,57,42122
7996,104,42136
7997,200,42147
7998,33,42240
7999,148,42271
8000,50,2514
8001,129,2535
8002,58,2549
8003,60,2561
8004,17,2573
8005,200,2581
8006,56,2583
8007,179,2596
8008,154,2597
8009,209,2636
8010,93,2658
8011,165,2663
8012,129,2683
8013,194,2687
8014,48,2706
8015,194,2708
8016,84,2714
8017,159,2753
8018,207,2759
8019,68,2763
8020,148,2786
8021,200,2787
8022,115,2790
8023,85,2795
8024,8,2832
8025,228,2840
8026,28,2864
8027,121,2877
8028,160,2878
8029,203,2886
8030,220,2961
8031,71,2981
8032,57,37358
8033,174,37373
8034,14,37730
8035,145,37833
8036,109,37896
8037,113,38320
8038,76,38610
8039,20,38887
8040,69,39064
8041,153,39347
8042,5,40358
8043,50,41160
8044,179,41298
8045,71,41372
8046,27,41691
8047,76,41945
8048,92,42458
8049,72,42713
8050,71,44458
8051,185,15
8052,62,20
8053,108,24
8054,15,28
8055,59,31
8056,209,49
8057,56,55
8058,33,60
8059,185,72
8060,114,95
8061,30,99
8062,158,129
8063,102,167
8064,72,14159
8065,24,14162
8066,224,14164
8067,216,14166
8068,174,14186
8069,220,14214
8070,10,14215
8071,105,14231
8072,158,14233
8073,126,14235
8074,194,14244
8075,174,14245
8076,114,14258
8077,228,14272
8078,197,14289
8079,153,14318
8080,84,14357
8081,147,14360
8082,94,14368
8083,35,14373
8084,56,14392
8085,8,14403
8086,161,14414
8087,57,14418
8088,178,14422
8089,102,14449
8090,81,14478
8091,174,14497
8092,114,14508
8093,179,14512
8094,206,14518
8095,74,14530
8096,56,24680
8097,147,24723
8098,185,24741
8099,149,24742
8100,108,24755
8101,190,24757
8102,189,24758
8103,63,24768
8104,21,24773
8105,58,24774
8106,55,24777
8107,110,24779
8108,29,24780
8109,179,24785
8110,149,24787
8111,174,24800
8112,115,24804
8113,18,24812
8114,177,24814
8115,84,24841
8116,224,24848
8117,2,24860
8118,148,24861
8119,145,24863
8120,99,24864
8121,92,24865
8122,125,24875
8123,197,24883
8124,29,24884
8125,145,24887
8126,41,24899
8127,155,24901
8128,113,43056
8129,74,43057
8130,37,43059
8131,121,43063
8132,114,43066
8133,56,43067
8134,37,43070
8135,44,43076
8136,103,43081
8137,105,43087
8138,96,43089
8139,66,43091
8140,210,43094
8141,204,43097
8142,52,43098
8143,149,43106
8144,180,43107
8145,14,43111
8146,132,43116
8147,77,43121
8148,12,43123
8149,187,43126
8150,57,43128
8151,63,43136
8152,66,43137
8153,80,43157
8154,171,43158
8155,27,43166
8156,224,43169
8157,222,43172
8158,56,43175
8159,79,43179
8160,72,19239
8161,145,19241
8162,149,19242
8163,180,19257
8164,93,19284
8165,222,19286
8166,159,19300
8167,69,19303
8168,0,19316
8169,149,19325
8170,5,19345
8171,21,19388
8172,158,19394
8173,157,19409
8174,209,19410
8175,44,19416
8176,117,19418
8177,174,19423
8178,158,19425
8179,145,19434
8180,102,19435
8181,102,19437
8182,127,19444
8183,14,19452
8184,206,19453
8185,199,19460
8186,96,19462
8187,126,19472
8188,204,19475
8189,77,19480
8190,216,19489
8191,74,19499
8192,165,37668
8193,184,37671
8194,103,37675
8195,222,37676
8196,192,37677
8197,35,37682
8198,81,37693
8199,7,37694
8200,113,37695
8201,21,37696
8202,206,37698
8203,54,37699
8204,159,37702
8205,99,37709
8206,62,37711
8207,209,37715
8208,96,37718
8209,93,37723
8210,146,37726
8211,185,37727
8212,62,37729
8213,37,37731
8214,149,37737
8215,101,37738
8216,14,37741
8217,10,37742
8218,68,37745
8219,150,37748
8220,190,37753
8221,51,37769
8222,29,37775
8223,42,37785
8224,96,23544
8225,171,23549
8226,88,23553
8227,4,23558
8228,178,23568
8229,108,23580
8230,35,23583
8231,179,23590
8232,220,23606
8233,66,23607
8234,178,23613
8235,159,23618
8236,93,23622
8237,92,23623
8238,228,23629
8239,187,23630
8240,159,23633
8241,209,23644
8242,37,23650
8243,92,23656
8244,158,23659
8245,10,23670
8246,192,23680
8247,102,23682
8248,9,23683
8249,67,23690
8250,99,23695
8251,131,23698
8252,103,23699
8253,79,23725
8254,150,23726
8255,107,23731
8256,72,16530
8257,177,16549
8258,128,16559
8259,26,16583
8260,228,16586
8261,177,16630
8262,145,16658
8263,196,16667
8264,87,16670
8265,83,16685
8266,85,16690
8267,51,16699
8268,192,16701
8269,189,16726
8270,197,16731
8271,142,16757
8272,133,16771
8273,62,16773
8274,180,16775
8275,177,16783
8276,85,16796
8277,6,16819
8278,41,16877
8279,30,16896
8280,149,16922
8281,159,16923
8282,209,16926
8283,66,16944
8284,32,16962
8285,100,16976
8286,62,17019
8287,15,17024
8288,92,18396
8289,37,18421
8290,51,18438
8291,157,18443
8292,154,18473
8293,94,18513
8294,64,18547
8295,29,18581
8296,62,18589
8297,172,18605
8298,185,18616
8299,178,18634
8300,37,18636
8301,179,18661
8302,92,18667
8303,9,18692
8304,197,18721
8305,130,18733
8306,64,18740
8307,32,18836
8308,14,18839
8309,49,18964
8310,92,18966
8311,154,18982
8312,10,19004
8313,66,19035
8314,146,19058
8315,60,19068
8316,115,19069
8317,21,19070
8318,194,19078
8319,60,19134
8320,85,29925
8321,158,29948
8322,99,29955
8323,51,29966
8324,157,29976
8325,21,29977
8326,5,30005
8327,136,30009
8328,113,30011
8329,74,30016
8330,108,30044
8331,172,30064
8332,96,30079
8333,209,30086
8334,178,30108
8335,44,30122
8336,51,30131
8337,194,30139
8338,194,30149
8339,102,30152
8340,17,30158
8341,57,30162
8342,159,30164
8343,154,30167
8344,77,30188
8345,107,30200
8346,127,30240
8347,228,30247
8348,147,30265
8349,80,30277
8350,194,30299
8351,122,30303
8352,50,805
8353,99,842
8354,29,889
8355,160,890
8356,200,927
8357,199,959
8358,66,965
8359,7,1009
8360,185,1022
8361,199,1062
8362,199,1100
8363,81,1103
8364,52,1113
8365,199,1117
8366,114,1120
8367,81,1124
8368,174,1127
8369,7,1138
8370,32,1212
8371,85,1220
8372,158,1252
8373,10,1272
8374,200,1279
8375,161,1285
8376,85,1290
8377,96,1295
8378,72,1300
8379,56,1308
8380,88,1328
8381,81,1338
8382,96,1349
8383,194,1351
8384,37,38376
8385,77,38392
8386,105,38399
8387,48,38458
8388,117,38461
8389,78,38464
8390,174,38470
8391,148,38484
8392,85,38485
8393,171,38535
8394,187,38557
8395,115,38648
8396,114,38707
8397,184,38714
8398,33,38732
8399,196,38745
8400,6,38837
8401,92,38838
8402,79,38843
8403,77,38912
8404,109,38913
8405,184,38960
8406,113,39007
8407,32,39021
8408,0,39027
8409,185,39029
8410,0,39073
8411,192,39099
8412,57,39101
8413,158,39131
8414,21,39144
8415,22,39159
8416,149,56389
8417,84,56391
8418,165,56393
8419,149,56397
8420,107,56398
8421,185,56399
8422,8,56401
8423,46,56403
8424,158,56405
8425,37,56406
8426,69,56408
8427,88,56409
8428,185,56414
8429,15,56415
8430,222,56417
8431,109,56419
8432,194,56420
8433,74,56421
8434,7,56422
8435,184,56424
8436,187,56426
8437,158,56427
8438,184,56430
8439,117,56434
8440,15,56435
8441,37,56436
8442,84,56437
8443,150,56438
8444,189,56439
8445,128,56442
8446,81,56445
8447,148,56446
8448,32,33505
8449,185,33854
8450,102,33987
8451,84,34077
8452,5,34515
8453,46,36304
8454,76,36769
8455,150,41613
8456,114,16
8457,206,33
8458,64,65
8459,128,67
8460,96,127
8461,62,142
8462,222,144
8463,26,148
8464,114,181
8465,210,231
8466,79,251
8467,32,277
8468,60,313
8469,85,343
8470,180,345
8471,84,356
8472,69,358
8473,161,395
8474,117,408
8475,58,451
8476,26,460
8477,62,497
8478,46,499
8479,26,569
8480,80,13484
8481,109,13496
8482,95,13498
8483,56,13501
8484,103,13502
8485,107,13585
8486,149,13605
8487,203,13614
8488,102,13620
