,partition,vertex
0,100,49465
1,9,49471
2,0,49476
3,27,49477
4,19,49480
5,26,49481
6,66,49483
7,157,49484
8,37,49487
9,9,49488
10,71,49491
11,33,49493
12,34,49495
13,10,49498
14,135,49499
15,148,49503
16,14,49512
17,209,49514
18,55,49518
19,113,49522
20,32,49525
21,24,49528
22,7,49529
23,32,49531
24,101,49532
25,206,49533
26,69,49538
27,82,49541
28,210,49545
29,194,49548
30,77,49550
31,14,49561
32,105,47232
33,74,47239
34,199,47243
35,224,47244
36,165,47245
37,48,47249
38,203,47253
39,149,47254
40,81,47260
41,150,47261
42,185,47263
43,222,47264
44,128,47266
45,105,47268
46,107,47270
47,154,47271
48,200,47275
49,206,47276
50,1,47277
51,111,47292
52,142,47295
53,88,47298
54,209,47299
55,210,47303
56,54,47307
57,38,47311
58,84,47312
59,209,47314
60,74,47315
61,228,47316
62,121,47318
63,184,47321
64,159,571
65,194,614
66,102,640
67,90,645
68,102,681
69,102,727
70,35,783
71,17,819
72,2,910
73,32,913
74,130,1922
75,27,1969
76,114,2194
77,160,2232
78,209,2467
79,101,2807
80,209,2821
81,99,3435
82,108,3456
83,30,3490
84,114,3502
85,185,3512
86,6,3566
87,180,4281
88,88,4309
89,9,4468
90,159,4555
91,28,4958
92,2,4973
93,44,4986
94,114,5006
95,105,5010
96,105,18702
97,220,18736
98,185,18745
99,113,18757
100,32,18758
101,165,18809
102,207,18812
103,154,18815
104,77,18822
105,206,18846
106,123,18856
107,66,18865
108,177,18879
109,77,18881
110,224,18894
111,54,18931
112,187,18975
113,68,19009
114,77,19013
115,82,19021
116,35,19051
117,72,19087
118,102,19092
119,210,19104
120,7,19121
121,128,19131
122,67,19142
123,9,19177
124,74,19225
125,96,19240
126,113,19243
127,60,19244
128,103,13808
129,66,13843
130,209,13846
131,142,13905
132,107,13913
133,126,14016
134,172,14050
135,159,14067
136,106,14072
137,41,14263
138,88,14265
139,108,14271
140,220,14292
141,130,14342
142,200,14346
143,81,14385
144,157,14396
145,15,14517
146,51,14522
147,150,14546
148,149,14561
149,178,14568
150,5,14583
151,136,14624
152,105,14708
153,69,14729
154,100,14839
155,200,14871
156,27,14877
157,15,14905
158,91,14911
159,1,14917
160,113,29740
161,10,29749
162,26,29751
163,104,29757
164,153,29759
165,180,29764
166,204,29765
167,58,29766
168,160,29769
169,158,29771
170,114,29772
171,224,29773
172,6,29776
173,18,29784
174,95,29787
175,161,29792
176,68,29795
177,83,29797
178,32,29813
179,88,29815
180,158,29823
181,17,29831
182,133,29839
183,206,29840
184,135,29841
185,33,29842
186,172,29844
187,33,29845
188,19,29846
189,88,29848
190,184,29849
191,94,29853
192,103,27444
193,125,27452
194,126,27454
195,174,27457
196,128,27460
197,66,27462
198,62,27476
199,220,27495
200,130,27500
201,224,27507
202,72,27513
203,192,27515
204,8,27539
205,5,27543
206,118,27547
207,84,27558
208,118,27560
209,19,27567
210,131,27568
211,157,27569
212,80,27570
213,66,27571
214,224,27576
215,92,27577
216,58,27582
217,111,27584
218,24,27587
219,10,27592
220,113,27595
221,158,27596
222,225,27598
223,199,27616
224,209,58118
225,2,58119
226,108,58120
227,94,58121
228,85,58122
229,14,58124
230,146,58127
231,88,58139
232,125,58143
233,149,58145
234,94,58151
235,145,58160
236,92,58161
237,194,58164
238,67,58169
239,118,58175
240,135,58180
241,189,58194
242,187,58206
243,204,58210
244,222,58214
245,49,58219
246,96,58222
247,30,58233
248,146,58236
249,13,58240
250,89,58241
251,3,58245
252,194,58247
253,113,58250
254,158,58253
255,92,58260
256,80,45267
257,145,45272
258,206,45279
259,158,45283
260,5,45285
261,88,45292
262,76,45295
263,7,45301
264,83,45314
265,13,45317
266,142,45330
267,114,45353
268,6,45355
269,153,45376
270,106,45388
271,49,45391
272,35,45400
273,88,45407
274,91,45418
275,7,45419
276,28,45435
277,42,45439
278,101,45452
279,17,45458
280,206,45474
281,77,45478
282,5,45489
283,79,45490
284,0,45491
285,58,45500
286,117,45517
287,34,45519
288,72,39790
289,105,39793
290,88,39796
291,2,39797
292,77,39805
293,206,39807
294,51,39810
295,79,39812
296,14,39814
297,14,39816
298,203,39818
299,159,39823
300,17,39824
301,105,39836
302,209,39838
303,179,39839
304,158,39845
305,19,39846
306,130,39853
307,184,39859
308,126,39876
309,14,39878
310,178,39886
311,18,39889
312,5,39892
313,9,39894
314,66,39895
315,71,39899
316,107,39903
317,114,39907
318,32,39909
319,58,39913
320,5,8537
321,92,8539
322,153,8541
323,54,8543
324,46,8544
325,92,8557
326,54,8562
327,194,8563
328,150,8567
329,18,8574
330,159,8579
331,115,8583
332,82,8587
333,95,8590
334,180,8597
335,184,8602
336,178,8612
337,8,8615
338,196,8617
339,88,8618
340,69,8628
341,158,8640
342,0,8657
343,141,8670
344,46,8672
345,44,8675
346,92,8676
347,135,8681
348,32,8682
349,150,8684
350,58,8693
351,130,8697
352,159,8999
353,7,9028
354,107,9032
355,125,9072
356,204,9074
357,88,9096
358,161,9113
359,71,9114
360,159,9128
361,66,9139
362,40,9160
363,220,9164
364,159,9166
365,224,9170
366,95,9187
367,210,9192
368,56,9213
369,147,9221
370,199,9225
371,108,9226
372,91,9232
373,142,9238
374,66,9248
375,206,9254
376,64,9271
377,32,9272
378,122,9276
379,145,9278
380,185,9283
381,130,9290
382,101,9297
383,102,9322
384,62,27564
385,54,27566
386,5,27575
387,185,27588
388,100,27589
389,79,27590
390,17,27591
391,35,27600
392,51,27604
393,136,27606
394,89,27607
395,9,27608
396,17,27613
397,0,27617
398,153,27618
399,158,27623
400,81,27624
401,7,27625
402,133,27626
403,2,27630
404,172,27632
405,159,27633
406,72,27636
407,102,27641
408,66,27650
409,178,27656
410,206,27658
411,107,27665
412,148,27671
413,62,27673
414,99,27677
415,99,27689
416,32,14175
417,158,14183
418,177,14194
419,93,14199
420,102,14200
421,122,14201
422,150,14209
423,46,14210
424,27,14219
425,76,14230
426,220,14240
427,133,14269
428,174,14276
429,204,14280
430,141,14282
431,147,14291
432,1,14294
433,10,14307
434,149,14309
435,77,14311
436,13,14313
437,7,14319
438,196,14324
439,132,14337
440,57,14343
441,94,14347
442,4,14371
443,107,14375
444,157,14376
445,37,14380
446,126,14382
447,165,14399
448,102,11118
449,52,11134
450,74,11143
451,17,11156
452,81,11166
453,54,11170
454,194,11193
455,64,11212
456,178,11220
457,172,11230
458,82,11251
459,107,11267
460,196,11294
461,80,11295
462,92,11296
463,59,11298
464,185,11329
465,194,11334
466,60,11350
467,105,11356
468,177,11361
469,160,11376
470,115,11382
471,10,11383
472,67,11402
473,206,11419
474,221,11432
475,220,11441
476,30,11448
477,126,11480
478,165,11489
479,0,11519
480,179,48617
481,77,48623
482,196,48630
483,77,48631
484,7,48635
485,129,48637
486,74,48641
487,79,48642
488,130,48648
489,79,48649
490,121,48650
491,83,48653
492,56,48654
493,221,48657
494,42,48658
495,220,48660
496,149,48662
497,222,48664
498,99,48669
499,102,48670
500,228,48671
501,135,48673
502,118,48675
503,4,48678
504,12,48684
505,184,48686
506,145,48691
507,48,48695
508,4,48696
509,40,48699
510,88,48700
511,228,48701
512,8,46962
513,99,46963
514,77,46965
515,64,46967
516,103,46968
517,222,46970
518,30,46974
519,35,46975
520,7,46982
521,150,46985
522,224,46987
523,185,46994
524,118,46998
525,35,47000
526,28,47001
527,114,47002
528,184,47006
529,81,47007
530,20,47008
531,158,47011
532,77,47013
533,32,47014
534,114,47015
535,101,47016
536,1,47018
537,52,47019
538,80,47021
539,62,47029
540,52,47031
541,46,47032
542,102,47035
543,209,47040
544,153,14926
545,53,14934
546,6,14960
547,56,14962
548,177,14985
549,180,14988
550,206,15005
551,7,15018
552,15,15026
553,159,15041
554,20,15042
555,15,15048
556,147,15060
557,6,15067
558,51,15069
559,22,15077
560,20,15079
561,81,15086
562,68,15097
563,142,15110
564,141,15134
565,84,15158
566,220,15161
567,31,15168
568,99,15193
569,67,15213
570,220,15235
571,129,15248
572,192,15252
573,209,15257
574,6,15261
575,180,15278
576,28,29562
577,85,29569
578,101,29574
579,180,29576
580,161,29580
581,20,29583
582,114,29588
583,200,29590
584,42,29597
585,0,29600
586,10,29604
587,41,29607
588,118,29638
589,7,29643
590,63,29645
591,76,29655
592,159,29656
593,159,29657
594,21,29662
595,190,29674
596,30,29677
597,158,29683
598,66,29685
599,103,29692
600,27,29693
601,160,29698
602,103,29699
603,165,29700
604,60,29705
605,68,29733
606,32,29736
607,155,29738
608,145,17646
609,0,17901
610,17,17987
611,24,18047
612,94,18170
613,114,18535
614,20,19267
615,185,19958
616,81,20250
617,150,20518
618,51,20824
619,1,20868
620,162,21075
621,104,21273
622,115,22531
623,126,23986
624,69,24202
625,32,24504
626,113,25167
627,100,26741
628,9,32745
629,69,32788
630,128,32967
631,199,33678
632,33,33744
633,132,34875
634,93,36103
635,42,37667
636,122,41368
637,130,92
638,27,117
639,29,133
640,79,13228
641,79,13239
642,221,13248
643,57,13253
644,161,13291
645,12,13312
646,132,13316
647,145,13323
648,84,13328
649,55,13355
650,72,13361
651,85,13369
652,126,13375
653,94,13381
654,178,13392
655,114,13400
656,2,13407
657,159,13411
658,84,13415
659,50,13417
660,5,13419
661,192,13432
662,51,13463
663,51,13464
664,108,13467
665,179,13468
666,2,13472
667,185,13487
668,33,13503
669,14,13506
670,4,13517
671,10,13518
672,88,54005
673,174,54006
674,34,54007
675,18,54008
676,99,54013
677,158,54014
678,108,54015
679,178,54020
680,67,54023
681,114,54026
682,207,54028
683,49,54030
684,132,54031
685,72,54033
686,62,54037
687,41,54038
688,92,54052
689,34,54053
690,192,54057
691,141,54059
692,200,54062
693,46,54064
694,159,54066
695,189,54068
696,125,54074
697,109,54077
698,37,54082
699,174,54086
700,13,54088
701,62,54089
702,199,54091
703,37,54092
704,108,34317
705,117,34319
706,192,34321
707,178,34326
708,1,34345
709,56,34360
710,30,34366
711,100,34370
712,31,34373
713,5,34410
714,60,34413
715,2,34414
716,92,34422
717,57,34430
718,203,34431
719,77,34433
720,128,34441
721,180,34447
722,199,34450
723,209,34452
724,68,34463
725,17,34469
726,3,34493
727,126,34496
728,34,34499
729,210,34501
730,99,34507
731,209,34509
732,174,34524
733,159,34527
734,43,34541
735,104,34546
736,141,28080
737,154,28098
738,85,28115
739,180,28134
740,145,28137
741,64,28141
742,32,28143
743,221,28191
744,115,28193
745,33,28197
746,114,28218
747,102,28226
748,28,28230
749,32,28232
750,194,28235
751,12,28237
752,141,28240
753,56,28253
754,224,28254
755,78,28262
756,88,28278
757,111,28284
758,29,28294
759,105,28305
760,172,28347
761,0,28356
762,184,28358
763,178,28375
764,189,28387
765,99,28388
766,15,28411
767,30,28418
768,145,6196
769,56,6204
770,85,6213
771,206,6217
772,115,6234
773,185,6235
774,46,6238
775,145,6271
776,56,6297
777,206,6309
778,15,6324
779,38,6345
780,185,6357
781,67,6379
782,62,6392
783,48,6407
784,159,6412
785,92,6413
786,103,6418
787,58,6419
788,68,6422
789,17,6440
790,180,6441
791,45,6446
792,67,6456
793,146,6474
794,37,6475
795,114,6495
796,32,6499
797,209,6504
798,222,6542
799,41,6543
800,5,39331
801,122,39335
802,66,39340
803,35,39345
804,18,39351
805,34,39354
806,84,39365
807,51,39369
808,62,39373
809,125,39378
810,141,39389
811,207,39394
812,114,39397
813,51,39398
814,91,39400
815,111,39401
816,121,39402
817,199,39404
818,5,39410
819,96,39420
820,210,39425
821,187,39427
822,185,39429
823,52,39430
824,8,39432
825,35,39442
826,46,39445
827,178,39446
828,192,39448
829,100,39463
830,63,39471
831,5,39475
832,113,30538
833,53,30541
834,32,30545
835,3,30548
836,110,30549
837,38,30555
838,130,30562
839,142,30563
840,77,30570
841,32,30571
842,200,30575
843,21,30582
844,180,30587
845,174,30592
846,7,30596
847,199,30597
848,102,30601
849,204,30607
850,184,30609
851,220,30613
852,220,30627
853,210,30629
854,159,30632
855,56,30634
856,76,30635
857,68,30640
858,210,30654
859,209,30657
860,44,30660
861,13,30663
862,184,30681
863,111,30682
864,26,19686
865,0,19695
866,149,19708
867,88,19837
868,59,19883
869,51,19933
870,197,20091
871,149,20120
872,72,20424
873,8,20694
874,108,20732
875,52,20772
876,88,21262
877,130,21405
878,126,21481
879,85,21549
880,43,21614
881,58,21662
882,131,21670
883,58,21838
884,69,21844
885,121,21878
886,135,21883
887,99,21970
888,74,22006
889,114,22013
890,184,22076
891,141,22123
892,206,22356
893,192,22426
894,6,22442
895,185,22450
896,5,7647
897,172,7666
898,85,7726
899,32,7734
900,206,7781
901,26,7789
902,103,7794
903,33,7796
904,2,7805
905,37,7824
906,154,7829
907,27,7836
908,68,7850
909,206,7889
910,55,7908
911,125,7925
912,161,7933
913,113,7948
914,105,7973
915,79,7977
916,0,8032
917,66,8034
918,161,8043
919,118,8051
920,66,8090
921,56,8106
922,224,8125
923,155,8193
924,54,8205
925,66,8209
926,159,8216
927,107,8236
928,51,23833
929,154,23876
930,42,23880
931,228,23885
932,129,23897
933,52,23926
934,26,23935
935,26,23953
936,187,24014
937,203,24016
938,68,24022
939,105,24048
940,62,24067
941,81,24076
942,192,24082
943,30,24103
944,30,24137
945,5,24165
946,130,24166
947,81,24179
948,0,24196
949,162,24201
950,51,24239
951,77,24271
952,38,24289
953,204,24324
954,199,24363
955,2,24400
956,29,24421
957,113,24426
958,207,24443
959,69,24508
960,107,3343
961,153,3349
962,51,3355
963,228,3367
964,5,3376
965,99,3395
966,32,3401
967,209,3407
968,180,3410
969,2,3418
970,130,3434
971,60,3458
972,0,3459
973,81,3465
974,161,3470
975,172,3500
976,104,3532
977,18,3574
978,102,3575
979,150,3577
980,64,3614
981,206,3620
982,154,3630
983,158,3640
984,1,3645
985,40,3651
986,206,3658
987,153,3679
988,118,3680
989,79,3694
990,185,3695
991,4,3700
992,184,15209
993,84,15229
994,150,15264
995,46,15270
996,41,15271
997,125,15272
998,59,15282
999,32,15300
1000,54,15304
1001,179,15335
1002,41,15338
1003,81,15351
1004,48,15356
1005,95,15393
1006,40,15398
1007,174,15407
1008,222,15438
1009,108,15443
1010,51,15464
1011,149,15469
1012,192,15512
1013,85,15527
1014,105,15629
1015,81,15640
1016,91,15682
1017,158,15704
1018,158,15713
1019,154,15719
1020,149,15747
1021,221,15748
1022,83,15751
1023,85,15779
1024,57,29989
1025,97,29994
1026,72,30000
1027,34,30017
1028,126,30027
1029,220,30029
1030,46,30034
1031,104,30039
1032,153,30043
1033,64,30052
1034,114,30053
1035,222,30055
1036,96,30057
1037,161,30063
1038,117,30068
1039,46,30069
1040,81,30070
1041,184,30072
1042,6,30077
1043,147,30078
1044,158,30080
1045,209,30094
1046,101,30109
1047,179,30115
1048,184,30118
1049,3,30120
1050,56,30121
1051,159,30127
1052,228,30128
1053,62,30136
1054,96,30137
1055,180,30138
1056,44,13364
1057,177,13382
1058,56,13428
1059,89,13435
1060,118,13437
1061,159,13440
1062,94,13445
1063,4,13446
1064,177,13456
1065,9,13473
1066,155,13492
1067,5,13504
1068,177,13508
1069,85,13511
1070,51,13533
1071,158,13541
1072,161,13546
1073,101,13557
1074,103,13574
1075,196,13576
1076,9,13582
1077,14,13584
1078,108,13593
1079,69,13628
1080,57,13636
1081,127,13654
1082,77,13656
1083,150,13659
1084,17,13662
1085,2,13678
1086,160,13680
1087,62,13682
1088,154,38644
1089,148,38649
1090,32,38652
1091,150,38655
1092,7,38656
1093,85,38660
1094,0,38669
1095,7,38670
1096,10,38672
1097,209,38674
1098,94,38677
1099,94,38680
1100,21,38681
1101,32,38686
1102,118,38691
1103,74,38695
1104,189,38697
1105,80,38711
1106,1,38713
1107,149,38717
1108,48,38720
1109,145,38722
1110,9,38726
1111,171,38727
1112,113,38728
1113,141,38729
1114,44,38730
1115,105,38731
1116,1,38733
1117,126,38734
1118,206,38736
1119,228,38740
1120,121,43218
1121,105,43228
1122,26,43229
1123,107,43232
1124,197,43236
1125,148,43246
1126,27,43253
1127,140,43255
1128,100,43257
1129,206,43262
1130,216,43266
1131,194,43268
1132,28,43272
1133,209,43275
1134,102,43279
1135,5,43284
1136,159,43285
1137,63,43289
1138,184,43290
1139,203,43297
1140,114,43307
1141,35,43308
1142,85,43318
1143,148,43319
1144,220,43324
1145,161,43325
1146,17,43326
1147,220,43328
1148,209,43332
1149,113,43333
1150,150,43346
1151,180,43348
1152,108,34024
1153,141,34033
1154,1,34039
1155,60,34043
1156,199,34046
1157,228,34047
1158,14,34065
1159,153,34070
1160,184,34074
1161,99,34081
1162,66,34090
1163,58,34101
1164,85,34107
1165,102,34116
1166,33,34123
1167,94,34125
1168,10,34126
1169,101,34131
1170,77,34134
1171,13,34139
1172,135,34149
1173,9,34162
1174,158,34169
1175,76,34171
1176,92,34172
1177,21,34178
1178,103,34181
1179,153,34188
1180,40,34194
1181,63,34205
1182,60,34210
1183,46,34223
1184,109,11961
1185,149,11990
1186,216,11992
1187,74,12086
1188,45,12129
1189,17,12174
1190,71,12214
1191,188,12258
1192,184,12340
1193,136,12351
1194,148,12358
1195,204,12470
1196,130,12471
1197,159,12492
1198,62,12527
1199,30,12544
1200,10,12595
1201,68,12638
1202,99,12702
1203,74,12725
1204,100,12776
1205,79,12789
1206,94,12802
1207,20,12820
1208,38,12870
1209,69,12873
1210,127,12947
1211,221,12978
1212,136,12982
1213,74,12997
1214,146,13012
1215,99,13044
1216,199,57792
1217,9,57793
1218,108,57794
1219,174,57797
1220,109,57800
1221,72,57801
1222,114,57803
1223,185,57804
1224,130,57806
1225,77,57807
1226,106,57808
1227,158,57810
1228,199,57811
1229,15,57812
1230,220,57813
1231,131,57814
1232,184,57816
1233,194,57817
1234,209,57819
1235,62,57823
1236,200,57824
1237,184,57826
1238,206,57827
1239,209,57829
1240,194,57830
1241,162,57835
1242,142,57836
1243,146,57837
1244,46,57839
1245,46,57840
1246,139,57842
1247,14,57843
1248,114,8404
1249,21,8405
1250,21,8408
1251,105,8412
1252,113,8414
1253,60,8424
1254,69,8429
1255,35,8432
1256,114,8433
1257,159,8436
1258,103,8438
1259,67,8450
1260,108,8453
1261,88,8459
1262,115,8466
1263,192,8467
1264,29,8469
1265,44,8482
1266,103,8483
1267,74,8491
1268,108,8492
1269,80,8498
1270,92,8502
1271,148,8503
1272,92,8513
1273,125,8514
1274,159,8516
1275,106,8518
1276,102,8522
1277,142,8523
1278,35,8524
1279,23,8534
1280,5,12456
1281,146,12478
1282,196,12519
1283,132,12543
1284,7,12603
1285,220,12656
1286,72,12657
1287,25,12706
1288,76,12709
1289,115,12730
1290,180,12734
1291,54,12786
1292,222,12854
1293,32,12858
1294,63,12866
1295,220,12885
1296,102,12901
1297,66,12912
1298,51,12926
1299,29,12953
1300,79,13032
1301,84,13064
1302,77,13098
1303,51,13210
1304,190,13232
1305,165,13246
1306,92,13274
1307,69,13313
1308,179,13324
1309,52,13351
1310,105,13461
1311,209,13514
1312,17,9444
1313,136,9453
1314,204,9454
1315,107,9457
1316,15,9460
1317,96,9463
1318,37,9469
1319,109,9478
1320,92,9488
1321,121,9489
1322,17,9494
1323,29,9499
1324,160,9502
1325,184,9510
1326,71,9513
1327,81,9518
1328,62,9539
1329,136,9543
1330,58,9547
1331,5,9548
1332,68,9561
1333,32,9562
1334,150,9563
1335,1,9577
1336,136,9581
1337,192,9583
1338,7,9586
1339,148,9591
1340,20,9594
1341,2,9595
1342,127,9604
1343,4,9610
1344,90,15558
1345,103,15563
1346,21,15591
1347,172,15592
1348,32,15606
1349,155,15609
1350,44,15614
1351,149,15637
1352,117,15647
1353,131,15660
1354,228,15662
1355,210,15679
1356,9,15685
1357,109,15688
1358,210,15692
1359,67,15722
1360,149,15739
1361,85,15743
1362,220,15749
1363,108,15752
1364,131,15769
1365,46,15785
1366,10,15786
1367,4,15798
1368,130,15818
1369,210,15822
1370,113,15844
1371,146,15852
1372,80,15858
1373,1,15860
1374,35,15868
1375,96,15872
1376,147,49819
1377,46,49821
1378,129,49823
1379,160,49828
1380,113,49835
1381,26,49842
1382,199,49848
1383,129,49849
1384,127,49855
1385,35,49856
1386,14,49857
1387,209,49862
1388,147,49863
1389,206,49877
1390,220,49881
1391,128,49884
1392,68,49889
1393,180,49891
1394,49,49894
1395,66,49895
1396,150,49903
1397,118,49915
1398,5,49921
1399,32,49923
1400,159,49924
1401,42,49927
1402,105,49933
1403,77,49935
1404,14,49936
1405,113,49939
1406,39,49942
1407,180,49947
1408,66,44241
1409,79,44245
1410,21,44252
1411,158,44258
1412,81,44259
1413,29,44263
1414,159,44264
1415,68,44275
1416,79,44280
1417,197,44287
1418,30,44288
1419,113,44297
1420,81,44298
1421,228,44303
1422,159,44313
1423,127,44314
1424,20,44318
1425,125,44320
1426,128,44321
1427,52,44323
1428,154,44326
1429,32,44330
1430,135,44333
1431,69,44336
1432,161,44341
1433,9,44346
1434,37,44356
1435,93,44358
1436,149,44361
1437,178,44363
1438,121,44365
1439,7,44367
1440,74,52875
1441,51,52879
1442,37,52881
1443,9,52886
1444,18,52888
1445,68,52890
1446,190,52892
1447,185,52894
1448,51,52895
1449,159,52896
1450,161,52898
1451,24,52905
1452,206,52907
1453,57,52908
1454,14,52912
1455,180,52914
1456,40,52918
1457,174,52920
1458,178,52921
1459,21,52922
1460,21,52923
1461,34,52929
1462,145,52935
1463,5,52942
1464,74,52944
1465,57,52951
1466,2,52956
1467,113,52961
1468,67,52969
1469,32,52972
1470,96,52975
1471,165,52979
1472,51,43710
1473,38,43714
1474,32,43718
1475,121,43729
1476,17,43730
1477,180,43734
1478,105,43738
1479,224,43740
1480,37,43741
1481,108,43743
1482,99,43746
1483,102,43748
1484,85,43751
1485,95,43752
1486,0,43753
1487,147,43755
1488,127,43756
1489,52,43759
1490,141,43768
1491,7,43769
1492,30,43770
1493,210,43776
1494,44,43777
1495,7,43779
1496,6,43783
1497,114,43788
1498,100,43790
1499,83,43791
1500,172,43793
1501,9,43796
1502,210,43798
1503,74,43800
1504,146,59351
1505,85,59352
1506,42,59353
1507,44,59354
1508,44,59355
1509,95,59356
1510,109,59357
1511,178,59358
1512,171,59359
1513,88,59360
1514,130,59361
1515,159,59362
1516,0,59363
1517,197,59364
1518,72,59366
1519,46,59367
1520,92,59369
1521,28,59374
1522,157,59375
1523,216,59376
1524,3,59377
1525,52,59378
1526,32,59379
1527,145,59380
1528,20,59381
1529,4,59382
1530,187,59383
1531,35,59384
1532,53,59385
1533,220,59387
1534,5,59389
1535,38,59390
1536,46,39767
1537,7,39798
1538,60,39831
1539,89,39856
1540,88,39868
1541,46,39888
1542,30,39901
1543,15,39933
1544,31,39937
1545,130,39941
1546,123,39942
1547,0,39967
1548,79,39975
1549,0,40011
1550,11,40023
1551,85,40170
1552,159,40219
1553,74,40227
1554,30,40267
1555,64,40329
1556,180,40333
1557,139,40336
1558,49,40411
1559,148,40419
1560,145,40436
1561,33,40440
1562,224,40453
1563,107,40472
1564,125,40528
1565,196,40561
1566,114,40563
1567,109,40569
1568,185,44268
1569,203,44271
1570,145,44289
1571,34,44295
1572,136,44300
1573,221,44328
1574,146,44332
1575,171,44337
1576,42,44338
1577,58,44369
1578,113,44372
1579,190,44375
1580,113,44390
1581,126,44391
1582,43,44402
1583,196,44430
1584,14,44432
1585,141,44442
1586,35,44461
1587,216,44493
1588,187,44524
1589,62,44543
1590,2,44550
1591,102,44563
1592,62,44577
1593,10,44585
1594,108,44602
1595,87,44605
1596,160,44616
1597,35,44625
1598,103,44627
1599,155,44646
1600,147,14410
1601,7,14421
1602,108,14424
1603,126,14430
1604,228,14434
1605,68,14435
1606,24,14446
1607,32,14473
1608,200,14490
1609,96,14498
1610,81,14502
1611,74,14532
1612,104,14538
1613,150,14542
1614,100,14558
1615,79,14591
1616,153,14611
1617,153,14631
1618,150,14638
1619,123,14660
1620,159,14700
1621,158,14705
1622,84,14712
1623,128,14788
1624,146,14789
1625,0,14805
1626,30,14808
1627,153,14818
1628,158,14836
1629,194,14855
1630,27,14869
1631,224,14873
1632,220,38902
1633,74,38905
1634,130,38926
1635,159,38928
1636,25,38938
1637,224,38944
1638,139,38968
1639,174,38977
1640,210,38984
1641,88,39002
1642,130,39011
1643,171,39013
1644,32,39016
1645,42,39017
1646,131,39042
1647,187,39068
1648,114,39084
1649,206,39106
1650,108,39140
1651,110,39195
1652,220,39241
1653,20,39247
1654,26,39252
1655,199,39265
1656,142,39268
1657,130,39290
1658,33,39310
1659,165,39320
1660,185,39329
1661,96,39346
1662,92,39366
1663,220,39380
1664,161,15203
1665,67,15239
1666,71,15371
1667,93,15511
1668,228,15617
1669,80,15626
1670,77,15708
1671,95,15726
1672,19,15776
1673,27,15889
1674,122,15892
1675,105,15895
1676,224,15925
1677,93,15963
1678,155,16065
1679,7,16093
1680,101,16363
1681,178,16369
1682,184,16488
1683,128,16541
1684,165,16553
1685,155,16700
1686,154,16703
1687,197,16791
1688,149,16809
1689,33,16827
1690,67,16842
1691,118,16853
1692,135,16895
1693,135,16924
1694,184,16954
1695,31,16983
1696,102,35820
1697,29,35829
1698,130,35837
1699,141,35846
1700,161,35849
1701,146,35852
1702,74,35865
1703,165,35868
1704,179,35875
1705,84,35878
1706,15,35933
1707,154,35935
1708,190,35940
1709,154,35941
1710,52,35943
1711,102,35965
1712,10,35969
1713,147,35983
1714,103,35992
1715,60,35996
1716,192,36002
1717,7,36009
1718,80,36016
1719,48,36061
1720,69,36066
1721,13,36068
1722,220,36073
1723,85,36092
1724,185,36099
1725,41,36115
1726,102,36120
1727,1,36125
1728,185,48973
1729,51,48974
1730,180,48975
1731,109,48980
1732,89,48981
1733,95,48986
1734,216,48987
1735,92,48988
1736,35,48990
1737,177,49009
1738,206,49011
1739,185,49012
1740,146,49017
1741,82,49018
1742,46,49023
1743,178,49024
1744,30,49026
1745,88,49027
1746,10,49032
1747,161,49040
1748,194,49042
1749,5,49043
1750,174,49044
1751,84,49045
1752,160,49046
1753,46,49049
1754,199,49050
1755,76,49054
1756,96,49055
1757,220,49056
1758,178,49057
1759,148,49065
1760,46,10563
1761,159,10572
1762,161,10588
1763,46,10598
1764,113,10620
1765,92,10622
1766,82,10628
1767,139,10660
1768,9,10667
1769,64,10675
1770,141,10687
1771,35,10694
1772,77,10734
1773,60,10740
1774,41,10763
1775,57,10768
1776,117,10786
1777,92,10793
1778,194,10794
1779,108,10798
1780,121,10810
1781,180,10816
1782,6,10822
1783,7,10825
1784,161,10836
1785,228,10843
1786,141,10850
1787,95,10867
1788,153,10871
1789,13,10907
1790,121,10916
1791,14,10958
1792,40,58492
1793,206,58493
1794,148,58494
1795,74,58495
1796,99,58496
1797,146,58498
1798,114,58499
1799,161,58501
1800,57,58503
1801,62,58504
1802,74,58505
1803,154,58507
1804,178,58510
1805,63,58511
1806,21,58512
1807,92,58513
1808,228,58515
1809,159,58516
1810,60,58519
1811,48,58520
1812,103,58521
1813,57,58522
1814,145,58524
1815,110,58525
1816,59,58526
1817,79,58527
1818,55,58528
1819,81,58529
1820,76,58530
1821,52,58531
1822,114,58532
1823,106,58533
1824,108,28256
1825,55,28266
1826,147,28273
1827,113,28274
1828,130,28276
1829,38,28285
1830,56,28287
1831,224,28290
1832,9,28298
1833,46,28303
1834,88,28304
1835,126,28308
1836,34,28314
1837,34,28318
1838,102,28320
1839,206,28321
1840,88,28324
1841,1,28329
1842,209,28346
1843,148,28357
1844,146,28359
1845,41,28363
1846,194,28365
1847,74,28382
1848,58,28391
1849,157,28399
1850,7,28403
1851,7,28405
1852,44,28409
1853,131,28413
1854,57,28424
1855,185,28428
1856,63,20506
1857,30,20511
1858,8,20513
1859,122,20523
1860,114,20529
1861,114,20534
1862,179,20545
1863,88,20569
1864,159,20595
1865,33,20601
1866,79,20612
1867,93,20625
1868,77,20657
1869,17,20679
1870,180,20685
1871,160,20718
1872,153,20725
1873,34,20726
1874,150,20735
1875,158,20738
1876,203,20741
1877,52,20751
1878,158,20752
1879,64,20754
1880,9,20765
1881,79,20769
1882,194,20780
1883,74,20788
1884,27,20789
1885,105,20796
1886,26,20798
1887,203,20811
1888,68,8409
1889,41,8485
1890,58,8497
1891,41,8533
1892,33,8545
1893,68,8561
1894,87,8601
1895,65,8613
1896,130,8645
1897,114,8658
1898,130,8679
1899,69,8680
1900,99,8704
1901,80,8719
1902,132,8748
1903,15,8765
1904,37,8786
1905,78,8796
1906,81,8824
1907,209,8833
1908,26,8882
1909,85,9090
1910,33,9105
1911,49,9144
1912,52,9163
1913,189,9171
1914,160,9172
1915,7,9186
1916,23,9193
1917,194,9200
1918,179,9207
1919,7,9231
1920,135,52233
1921,37,52239
1922,162,52240
1923,216,52241
1924,83,52243
1925,41,52244
1926,96,52245
1927,88,52246
1928,68,52249
1929,113,52253
1930,139,52254
1931,27,52258
1932,57,52265
1933,46,52268
1934,207,52272
1935,105,52275
1936,1,52286
1937,51,52295
1938,88,52296
1939,44,52300
1940,135,52307
1941,35,52308
1942,117,52311
1943,184,52319
1944,122,52322
1945,224,52323
1946,154,52326
1947,38,52327
1948,222,52328
1949,80,52333
1950,148,52336
1951,15,52338
1952,10,47110
1953,159,47144
1954,13,47184
1955,76,47227
1956,3,47242
1957,76,47262
1958,32,47272
1959,8,47286
1960,147,47289
1961,180,47290
1962,155,47319
1963,14,47334
1964,221,47361
1965,139,47365
1966,153,47369
1967,4,47384
1968,32,47409
1969,62,47447
1970,178,47453
1971,74,47468
1972,8,47509
1973,179,47515
1974,77,47521
1975,228,47527
1976,142,47528
1977,58,47564
1978,171,47580
1979,200,47594
1980,141,47635
1981,130,47690
1982,84,47701
1983,56,47704
1984,100,39754
1985,93,39766
1986,37,39778
1987,132,39782
1988,29,39787
1989,92,39817
1990,108,39819
1991,62,39820
1992,130,39828
1993,60,39835
1994,206,39840
1995,130,39842
1996,35,39855
1997,128,39877
1998,150,39881
1999,92,39897
2000,91,39904
2001,106,39911
2002,6,39959
2003,67,39980
2004,107,39984
2005,81,40016
2006,117,40041
2007,153,40060
2008,228,40079
2009,15,40124
2010,141,40139
2011,149,40143
2012,110,40156
2013,150,40171
2014,71,40178
2015,79,40205
2016,199,35351
2017,197,35368
2018,68,35376
2019,76,35390
2020,206,35413
2021,26,35501
2022,131,35552
2023,62,35575
2024,118,35576
2025,106,35583
2026,60,35605
2027,7,35609
2028,179,35615
2029,44,35632
2030,171,35653
2031,196,35662
2032,150,35715
2033,52,35758
2034,158,35826
2035,27,35843
2036,204,35876
2037,158,35909
2038,132,35948
2039,159,36013
2040,94,36014
2041,26,36060
2042,9,36072
2043,142,36094
2044,17,36182
2045,24,36232
2046,130,36262
2047,149,36266
2048,206,28550
2049,128,28559
2050,125,28560
2051,189,28569
2052,80,28578
2053,135,28580
2054,14,28598
2055,204,28604
2056,85,28620
2057,34,28634
2058,8,28641
2059,184,28663
2060,180,28676
2061,74,28680
2062,104,28696
2063,79,28701
2064,78,28728
2065,80,28730
2066,46,28736
2067,74,28739
2068,172,28740
2069,37,28768
2070,199,28781
2071,149,28784
2072,8,28792
2073,130,28796
2074,74,28797
2075,159,28801
2076,158,28848
2077,92,28874
2078,179,28906
2079,77,28923
2080,94,22601
2081,147,22622
2082,171,22642
2083,38,22644
2084,69,22649
2085,148,22680
2086,147,22701
2087,153,22735
2088,69,22738
2089,64,22756
2090,110,22761
2091,158,22824
2092,79,22887
2093,92,22892
2094,62,22913
2095,42,22992
2096,102,23031
2097,145,23032
2098,179,23049
2099,210,23151
2100,159,23248
2101,204,23349
2102,228,23380
2103,187,23421
2104,23,23459
2105,122,23501
2106,194,23592
2107,216,23677
2108,27,23741
2109,178,23922
2110,5,24070
2111,209,24267
2112,185,30896
2113,51,30897
2114,139,30907
2115,203,30911
2116,92,30915
2117,153,30916
2118,104,30918
2119,159,30923
2120,194,30925
2121,150,30928
2122,141,30933
2123,127,30945
2124,9,30951
2125,92,30957
2126,92,30962
2127,96,30967
2128,107,30970
2129,38,30978
2130,148,30981
2131,58,30987
2132,131,30993
2133,190,31001
2134,187,31002
2135,100,31024
2136,5,31025
2137,17,31026
2138,158,31029
2139,113,31038
2140,99,31041
2141,59,31043
2142,7,31044
2143,55,31049
2144,200,34395
2145,48,34400
2146,159,34401
2147,68,34417
2148,204,34419
2149,7,34424
2150,69,34434
2151,178,34438
2152,224,34453
2153,196,34464
2154,192,34476
2155,33,34479
2156,197,34482
2157,10,34494
2158,114,34497
2159,178,34521
2160,221,34525
2161,199,34533
2162,105,34534
2163,68,34539
2164,159,34552
2165,32,34553
2166,158,34555
2167,125,34558
2168,149,34574
2169,197,34581
2170,66,34582
2171,56,34591
2172,204,34593
2173,141,34595
2174,56,34596
2175,12,34603
2176,148,26073
2177,31,26074
2178,92,26095
2179,99,26116
2180,155,26118
2181,46,26124
2182,118,26130
2183,67,26164
2184,19,26165
2185,99,26174
2186,32,26208
2187,180,26209
2188,64,26212
2189,180,26247
2190,128,26255
2191,84,26261
2192,10,26265
2193,26,26268
2194,149,26281
2195,161,26319
2196,206,26330
2197,9,26332
2198,68,26335
2199,84,26339
2200,5,26380
2201,74,26382
2202,179,26383
2203,15,26393
2204,130,26402
2205,130,26409
2206,102,26422
2207,43,26433
2208,131,615
2209,66,616
2210,44,641
2211,209,646
2212,79,647
2213,210,648
2214,64,661
2215,69,689
2216,180,691
2217,40,798
2218,108,827
2219,96,829
2220,50,832
2221,120,834
2222,216,835
2223,113,838
2224,146,849
2225,46,853
2226,41,880
2227,179,888
2228,31,916
2229,184,926
2230,62,931
2231,154,938
2232,113,941
2233,18,1028
2234,108,1051
2235,32,1071
2236,56,1096
2237,141,1184
2238,10,1238
2239,158,1242
2240,92,17758
2241,64,17761
2242,200,17769
2243,76,17770
2244,220,17786
2245,66,17792
2246,128,17794
2247,107,17800
2248,114,17803
2249,81,17857
2250,189,17866
2251,194,17874
2252,85,17893
2253,100,17927
2254,171,17962
2255,130,17994
2256,1,18005
2257,64,18009
2258,15,18160
2259,68,18173
2260,118,18199
2261,1,18206
2262,141,18223
2263,81,18234
2264,74,18261
2265,48,18283
2266,159,18286
2267,147,18335
2268,81,18344
2269,21,18366
2270,57,18384
2271,128,18386
2272,8,4022
2273,26,4027
2274,103,4028
2275,153,4029
2276,155,4030
2277,106,4033
2278,161,4045
2279,41,4053
2280,200,4062
2281,70,4073
2282,29,4080
2283,200,4109
2284,2,4124
2285,64,4126
2286,125,4132
2287,161,4138
2288,192,4139
2289,44,4140
2290,69,4145
2291,132,4150
2292,41,4174
2293,8,4181
2294,32,4190
2295,158,4194
2296,206,4198
2297,77,4202
2298,81,4235
2299,158,4239
2300,135,4246
2301,136,4251
2302,184,4252
2303,91,4268
2304,46,32269
2305,179,32270
2306,43,32272
2307,79,32274
2308,158,32280
2309,46,32287
2310,32,32291
2311,154,32301
2312,199,32306
2313,41,32309
2314,69,32311
2315,88,32324
2316,5,32329
2317,196,32344
2318,160,32345
2319,165,32347
2320,54,32349
2321,114,32352
2322,35,32354
2323,21,32356
2324,68,32357
2325,19,32360
2326,95,32363
2327,102,32367
2328,161,32370
2329,108,32379
2330,92,32380
2331,51,32383
2332,121,32384
2333,42,32389
2334,128,32392
2335,33,32397
2336,52,41296
2337,113,41297
2338,9,41327
2339,178,41331
2340,29,41334
2341,185,41336
2342,46,41348
2343,102,41351
2344,99,41357
2345,67,41364
2346,132,41365
2347,92,41377
2348,157,41396
2349,1,41397
2350,210,41419
2351,30,41428
2352,199,41434
2353,159,41438
2354,184,41444
2355,66,41452
2356,179,41468
2357,131,41473
2358,64,41474
2359,159,41491
2360,158,41496
2361,159,41497
2362,222,41503
2363,102,41504
2364,95,41544
2365,46,41558
2366,13,41567
2367,117,41572
2368,47,42776
2369,172,42782
2370,102,42784
2371,44,42808
2372,53,42809
2373,146,42810
2374,228,42820
2375,51,42827
2376,103,42829
2377,158,42839
2378,44,42847
2379,37,42857
2380,158,42871
2381,9,42905
2382,9,42906
2383,7,42911
2384,46,42917
2385,71,42918
2386,180,42919
2387,159,42926
2388,56,42928
2389,0,42937
2390,56,42941
2391,95,42943
2392,220,42944
2393,2,42968
2394,148,42976
2395,140,42981
2396,12,43001
2397,66,43002
2398,81,43008
2399,30,43013
2400,9,42796
2401,114,42798
2402,44,42805
2403,130,42811
2404,53,42813
2405,102,42814
2406,69,42818
2407,81,42821
2408,74,42823
2409,8,42825
2410,28,42828
2411,96,42834
2412,84,42851
2413,17,42858
2414,0,42865
2415,100,42867
2416,172,42868
2417,139,42873
2418,67,42874
2419,64,42879
2420,162,42885
2421,146,42887
2422,96,42893
2423,179,42894
2424,162,42897
2425,37,42899
2426,76,42901
2427,85,42902
2428,96,42907
2429,80,42925
2430,141,42935
2431,60,42936
2432,53,35920
2433,58,35927
2434,165,35934
2435,110,35937
2436,5,35944
2437,5,35954
2438,136,35962
2439,15,35976
2440,34,35980
2441,153,35982
2442,141,36021
2443,52,36025
2444,2,36041
2445,159,36042
2446,56,36053
2447,108,36057
2448,52,36069
2449,128,36081
2450,35,36083
2451,192,36088
2452,192,36091
2453,26,36105
2454,77,36108
2455,136,36117
2456,17,36119
2457,32,36128
2458,99,36130
2459,9,36156
2460,110,36160
2461,1,36169
2462,131,36177
2463,113,36183
2464,32,25775
2465,85,25783
2466,30,25789
2467,220,25790
2468,57,25792
2469,50,25805
2470,14,25809
2471,135,25810
2472,38,25811
2473,105,25821
2474,162,25822
2475,113,25833
2476,114,25842
2477,14,25848
2478,57,25853
2479,221,25857
2480,88,25859
2481,72,25861
2482,125,25867
2483,162,25875
2484,46,25879
2485,92,25880
2486,148,25881
2487,126,25886
2488,158,25888
2489,56,25894
2490,19,25895
2491,158,25903
2492,3,25906
2493,100,25908
2494,35,25912
2495,68,25917
2496,185,2398
2497,148,2407
2498,115,2431
2499,171,2444
2500,96,2468
2501,189,2547
2502,41,2552
2503,102,2652
2504,66,2660
2505,150,2725
2506,56,2755
2507,40,2776
2508,99,2785
2509,84,2803
2510,159,2812
2511,1,2824
2512,154,2831
2513,222,2862
2514,68,3081
2515,58,3142
2516,158,3185
2517,39,3200
2518,102,3201
2519,81,3265
2520,20,3278
2521,51,3308
2522,32,3345
2523,128,3372
2524,17,3421
2525,46,3429
2526,2,3450
2527,27,3452
2528,206,55157
2529,115,55160
2530,185,55162
2531,99,55165
2532,154,55168
2533,200,55194
2534,190,55196
2535,56,55202
2536,104,55209
2537,216,55212
2538,121,55216
2539,108,55226
2540,2,55233
2541,155,55234
2542,92,55262
2543,114,55268
2544,160,55270
2545,79,55271
2546,107,55273
2547,54,55285
2548,40,55295
2549,43,55304
2550,32,55308
2551,189,55309
2552,57,55320
2553,41,55323
2554,126,55331
2555,57,55341
2556,67,55344
2557,159,55348
2558,30,55349
2559,46,55350
2560,142,54267
2561,2,54269
2562,192,54276
2563,180,54279
2564,83,54287
2565,130,54288
2566,48,54289
2567,180,54291
2568,165,54295
2569,158,54301
2570,204,54304
2571,180,54305
2572,180,54306
2573,228,54307
2574,180,54312
2575,44,54316
2576,72,54317
2577,139,54318
2578,196,54320
2579,37,54324
2580,8,54329
2581,85,54342
2582,108,54343
2583,165,54344
2584,159,54345
2585,103,54349
2586,102,54350
2587,32,54353
2588,69,54359
2589,159,54361
2590,82,54365
2591,72,54367
2592,85,33403
2593,184,33406
2594,187,33408
2595,51,33410
2596,43,33420
2597,92,33425
2598,8,33442
2599,76,33448
2600,92,33458
2601,72,33462
2602,209,33474
2603,67,33476
2604,148,33489
2605,60,33494
2606,159,33500
2607,27,33502
2608,146,33524
2609,26,33526
2610,128,33534
2611,33,33539
2612,147,33541
2613,55,33553
2614,24,33561
2615,105,33568
2616,96,33573
2617,178,33578
2618,120,33590
2619,108,33595
2620,132,33597
2621,74,33599
2622,77,33609
2623,42,33614
2624,10,6462
2625,100,6464
2626,66,6483
2627,153,6484
2628,62,6496
2629,44,6515
2630,79,6525
2631,9,6541
2632,68,6564
2633,62,6577
2634,64,6580
2635,130,6593
2636,33,6596
2637,114,6640
2638,194,6690
2639,53,6718
2640,44,6722
2641,29,6757
2642,204,6763
2643,14,6768
2644,35,6775
2645,80,6799
2646,85,6806
2647,74,6808
2648,172,6814
2649,46,6815
2650,159,6875
2651,159,6877
2652,158,6882
2653,100,6904
2654,187,6971
2655,206,7058
2656,30,39286
2657,4,39287
2658,180,39296
2659,60,39297
2660,72,39305
2661,37,39306
2662,29,39308
2663,224,39323
2664,102,39328
2665,99,39339
2666,187,39344
2667,92,39349
2668,111,39356
2669,128,39359
2670,60,39361
2671,46,39364
2672,109,39368
2673,117,39370
2674,114,39372
2675,48,39374
2676,78,39379
2677,171,39381
2678,94,39382
2679,56,39385
2680,146,39392
2681,142,39395
2682,99,39413
2683,216,39422
2684,0,39426
2685,50,39433
2686,32,39435
2687,41,39436
2688,178,30848
2689,133,30849
2690,194,30853
2691,34,30855
2692,159,30857
2693,204,30866
2694,136,30872
2695,199,30880
2696,184,30885
2697,178,30886
2698,0,30888
2699,15,30894
2700,93,30904
2701,93,30910
2702,80,30912
2703,228,30913
2704,160,30929
2705,158,30930
2706,37,30932
2707,154,30936
2708,108,30939
2709,1,30940
2710,101,30944
2711,88,30954
2712,160,30963
2713,45,30964
2714,194,30965
2715,30,30968
2716,32,30969
2717,88,30975
2718,145,30977
2719,180,30983
2720,53,53717
2721,103,53722
2722,88,53728
2723,56,53729
2724,56,53731
2725,32,53733
2726,136,53735
2727,172,53739
2728,3,53740
2729,82,53751
2730,159,53755
2731,106,53758
2732,9,53759
2733,180,53760
2734,224,53761
2735,6,53765
2736,157,53768
2737,224,53770
2738,1,53773
2739,65,53776
2740,78,53780
2741,126,53784
2742,130,53787
2743,126,53790
2744,113,53793
2745,206,53802
2746,103,53804
2747,142,53805
2748,54,53807
2749,100,53810
2750,210,53812
2751,158,53817
2752,196,2366
2753,74,2384
2754,157,2391
2755,8,2420
2756,51,2430
2757,145,2452
2758,7,2455
2759,92,2458
2760,46,2466
2761,76,2473
2762,158,2487
2763,107,2492
2764,7,2495
2765,102,2505
2766,192,2523
2767,158,2539
2768,46,2545
2769,62,2550
2770,153,2560
2771,42,2565
2772,51,2570
2773,76,2572
2774,162,2582
2775,105,2584
2776,29,2602
2777,26,2621
2778,114,2651
2779,93,2653
2780,149,2675
2781,46,2680
2782,60,2693
2783,59,2707
2784,97,40188
2785,113,40201
2786,56,40206
2787,108,40210
2788,209,40211
2789,64,40213
2790,41,40214
2791,68,40217
2792,80,40218
2793,5,40224
2794,199,40225
2795,103,40228
2796,109,40233
2797,66,40244
2798,1,40250
2799,155,40251
2800,57,40259
2801,81,40272
2802,7,40273
2803,72,40274
2804,52,40279
2805,111,40283
2806,178,40286
2807,14,40290
2808,130,40294
2809,165,40296
2810,206,40300
2811,180,40302
2812,92,40305
2813,14,40314
2814,77,40316
2815,54,40323
2816,150,49135
2817,46,49141
2818,135,49142
2819,32,49144
2820,135,49148
2821,24,49151
2822,150,49152
2823,118,49156
2824,174,49157
2825,126,49161
2826,72,49162
2827,135,49167
2828,192,49169
2829,43,49170
2830,88,49172
2831,21,49173
2832,206,49177
2833,125,49186
2834,142,49188
2835,129,49191
2836,114,49192
2837,105,49194
2838,35,49195
2839,105,49196
2840,5,49197
2841,102,49203
2842,46,49204
2843,194,49205
2844,161,49206
2845,68,49209
2846,147,49211
2847,150,49213
2848,158,7923
2849,71,7941
2850,159,7958
2851,104,7964
2852,95,7970
2853,92,7974
2854,93,7975
2855,62,7988
2856,216,7990
2857,0,8005
2858,92,8016
2859,206,8029
2860,103,8035
2861,20,8074
2862,221,8083
2863,8,8085
2864,30,8087
2865,52,8103
2866,66,8110
2867,153,8112
2868,153,8126
2869,92,8137
2870,153,8147
2871,189,8151
2872,160,8154
2873,66,8158
2874,38,8161
2875,85,8162
2876,5,8166
2877,5,8178
2878,52,8189
2879,185,8196
2880,147,14853
2881,194,14881
2882,209,14891
2883,171,14908
2884,68,14909
2885,14,14930
2886,44,14931
2887,110,14973
2888,146,14980
2889,153,14989
2890,52,14997
2891,3,15009
2892,146,15014
2893,104,15017
2894,51,15030
2895,76,15032
2896,95,15036
2897,37,15039
2898,46,15071
2899,57,15111
2900,100,15131
2901,145,15142
2902,61,15155
2903,57,15164
2904,114,15166
2905,145,15167
2906,101,15175
2907,57,15179
2908,184,15191
2909,54,15208
2910,76,15214
2911,136,15215
2912,199,20891
2913,132,20892
2914,210,20906
2915,228,20925
2916,84,20930
2917,87,20951
2918,102,20966
2919,80,20976
2920,105,20981
2921,96,20990
2922,189,20994
2923,0,21043
2924,2,21066
2925,199,21089
2926,79,21095
2927,130,21102
2928,91,21103
2929,76,21115
2930,51,21139
2931,177,21212
2932,133,21224
2933,174,21264
2934,37,21266
2935,94,21293
2936,161,21341
2937,114,21388
2938,68,21403
2939,88,21407
2940,154,21409
2941,46,21411
2942,221,21415
2943,93,21455
2944,99,58400
2945,94,58404
2946,174,58405
2947,33,58406
2948,85,58407
2949,203,58408
2950,114,58409
2951,149,58410
2952,33,58411
2953,108,58412
2954,66,58413
2955,72,58416
2956,128,58417
2957,32,58418
2958,174,58419
2959,158,58420
2960,180,58422
2961,135,58423
2962,10,58424
2963,149,58426
2964,187,58427
2965,34,58428
2966,126,58429
2967,220,58431
2968,105,58432
2969,105,58433
2970,53,58434
2971,161,58435
2972,220,58439
2973,135,58441
2974,178,58442
2975,90,58443
2976,51,11921
2977,59,11935
2978,180,11938
2979,130,11973
2980,107,11974
2981,17,11975
2982,39,11979
2983,21,11981
2984,184,12036
2985,100,12039
2986,88,12061
2987,94,12070
2988,44,12071
2989,204,12074
2990,32,12075
2991,161,12082
2992,228,12095
2993,135,12121
2994,102,12130
2995,114,12137
2996,37,12152
2997,185,12159
2998,210,12162
2999,128,12171
3000,32,12172
3001,85,12188
3002,203,12197
3003,8,12217
3004,33,12220
3005,77,12235
3006,3,12240
3007,135,12241
3008,69,51573
3009,42,51575
3010,207,51576
3011,68,51578
3012,4,51579
3013,220,51580
3014,14,51581
3015,7,51582
3016,197,51583
3017,194,51585
3018,37,51590
3019,67,51592
3020,33,51593
3021,197,51595
3022,204,51601
3023,113,51602
3024,9,51607
3025,209,51608
3026,14,51611
3027,27,51613
3028,17,51614
3029,69,51617
3030,54,51618
3031,199,51622
3032,58,51628
3033,189,51641
3034,159,51642
3035,141,51644
3036,61,51647
3037,141,51648
3038,67,51656
3039,179,51664
3040,209,30616
3041,192,30619
3042,14,30621
3043,34,30623
3044,6,30631
3045,184,30665
3046,63,30692
3047,1,30701
3048,178,30702
3049,177,30705
3050,37,30707
3051,180,30712
3052,130,30719
3053,194,30742
3054,37,30744
3055,9,30749
3056,39,30753
3057,94,30757
3058,194,30771
3059,165,30775
3060,178,30776
3061,177,30780
3062,9,30782
3063,69,30790
3064,41,30792
3065,54,30793
3066,92,30799
3067,150,30808
3068,1,30814
3069,132,30816
3070,178,30831
3071,128,30844
3072,159,18232
3073,161,18249
3074,204,18292
3075,159,18313
3076,67,18318
3077,197,18333
3078,37,18349
3079,35,18385
3080,73,18390
3081,1,18393
3082,132,18403
3083,197,18408
3084,26,18414
3085,178,18415
3086,220,18416
3087,110,18420
3088,63,18428
3089,34,18437
3090,200,18445
3091,96,18448
3092,113,18450
3093,102,18452
3094,58,18466
3095,209,18481
3096,93,18489
3097,224,18498
3098,77,18499
3099,132,18520
3100,5,18524
3101,6,18539
3102,18,18541
3103,58,18556
3104,204,48152
3105,6,48869
3106,66,49052
3107,24,49594
3108,5,49620
3109,199,50072
3110,10,50306
3111,135,50769
3112,189,51170
3113,1,51654
3114,128,51671
3115,26,51737
3116,20,51755
3117,153,51779
3118,108,51815
3119,106,51869
3120,17,51937
3121,32,52204
3122,62,52289
3123,224,52360
3124,37,52532
3125,81,52625
3126,190,52678
3127,94,52706
3128,13,52827
3129,42,53474
3130,145,53521
3131,2,53630
3132,147,53720
3133,88,53953
3134,130,54009
3135,2,54096
3136,187,5611
3137,41,5631
3138,69,5638
3139,38,5655
3140,17,5657
3141,85,5661
3142,153,5664
3143,78,5676
3144,46,5710
3145,159,5714
3146,210,5722
3147,43,5731
3148,0,5742
3149,29,5789
3150,32,5792
3151,64,5830
3152,180,5833
3153,105,5859
3154,68,5861
3155,185,5863
3156,81,5875
3157,224,5879
3158,102,5883
3159,0,5901
3160,224,5906
3161,200,5935
3162,184,5938
3163,65,5947
3164,92,5949
3165,51,5952
3166,159,5966
3167,29,5969
3168,131,26985
3169,192,27005
3170,46,27025
3171,153,27036
3172,108,27039
3173,74,27058
3174,4,27059
3175,60,27109
3176,113,27113
3177,158,27136
3178,206,27162
3179,127,27196
3180,136,27211
3181,0,27216
3182,149,27219
3183,46,27231
3184,179,27256
3185,185,27282
3186,81,27291
3187,85,27306
3188,204,27310
3189,66,27319
3190,150,27346
3191,103,27352
3192,209,27367
3193,51,27392
3194,7,27399
3195,77,27410
3196,178,27428
3197,171,27446
3198,18,27472
3199,60,27478
3200,149,56389
3201,84,56391
3202,165,56393
3203,149,56397
3204,107,56398
3205,185,56399
3206,8,56401
3207,46,56403
3208,158,56405
3209,37,56406
3210,69,56408
3211,88,56409
3212,185,56414
3213,15,56415
3214,222,56417
3215,109,56419
3216,194,56420
3217,74,56421
3218,7,56422
3219,184,56424
3220,187,56426
3221,158,56427
3222,184,56430
3223,117,56434
3224,15,56435
3225,37,56436
3226,84,56437
3227,150,56438
3228,189,56439
3229,128,56442
3230,81,56445
3231,148,56446
3232,57,31966
3233,159,32015
3234,160,32025
3235,52,32031
3236,15,32039
3237,172,32050
3238,160,32051
3239,51,32062
3240,174,32083
3241,216,32091
3242,148,32095
3243,209,32099
3244,222,32100
3245,118,32118
3246,103,32137
3247,121,32149
3248,108,32154
3249,81,32178
3250,147,32180
3251,203,32183
3252,157,32197
3253,14,32200
3254,76,32236
3255,224,32248
3256,150,32252
3257,203,32255
3258,120,32261
3259,1,32262
3260,26,32266
3261,42,32308
3262,92,32325
3263,28,32351
3264,55,18785
3265,126,18789
3266,194,18790
3267,80,18791
3268,128,18800
3269,160,18805
3270,160,18806
3271,15,18819
3272,26,18821
3273,67,18831
3274,194,18842
3275,0,18849
3276,204,18852
3277,187,18859
3278,222,18866
3279,127,18867
3280,114,18880
3281,11,18905
3282,123,18909
3283,196,18912
3284,96,18919
3285,135,18921
3286,190,18923
3287,180,18927
3288,210,18932
3289,184,18937
3290,199,18956
3291,9,18957
3292,9,18968
3293,102,18976
3294,216,18984
3295,174,18985
3296,155,56970
3297,74,56971
3298,146,56982
3299,104,56984
3300,79,56988
3301,9,56989
3302,149,56991
3303,92,56993
3304,50,56997
3305,43,56999
3306,58,57000
3307,162,57012
3308,84,57015
3309,21,57020
3310,102,57021
3311,21,57026
3312,57,57027
3313,74,57038
3314,3,57039
3315,114,57050
3316,105,57052
3317,27,57056
3318,95,57061
3319,149,57065
3320,130,57076
3321,161,57078
3322,194,57080
3323,45,57081
3324,121,57082
3325,100,57090
3326,14,57098
3327,6,57113
3328,206,52520
3329,102,52521
3330,185,52524
3331,20,52528
3332,58,52529
3333,174,52530
3334,81,52535
3335,72,52544
3336,21,52549
3337,14,52550
3338,29,52556
3339,14,52557
3340,130,52559
3341,209,52560
3342,220,52567
3343,150,52575
3344,2,52578
3345,165,52579
3346,216,52580
3347,25,52590
3348,6,52592
3349,72,52594
3350,185,52596
3351,56,52597
3352,131,52598
3353,72,52600
3354,102,52601
3355,108,52603
3356,92,52607
3357,68,52608
3358,0,52609
3359,30,52613
3360,46,37596
3361,179,37614
3362,204,37632
3363,165,37687
3364,158,37688
3365,21,37705
3366,220,37706
3367,34,37719
3368,95,37739
3369,210,37747
3370,6,37750
3371,200,37758
3372,79,37760
3373,58,37761
3374,58,37780
3375,206,37807
3376,184,37822
3377,118,37835
3378,129,37840
3379,174,37875
3380,180,37913
3381,204,37939
3382,99,37953
3383,13,37983
3384,174,37990
3385,0,38016
3386,85,38025
3387,68,38026
3388,180,38031
3389,146,38032
3390,85,38046
3391,121,38047
3392,159,17402
3393,136,17403
3394,153,17408
3395,79,17414
3396,187,17427
3397,46,17432
3398,30,17451
3399,57,17461
3400,9,17477
3401,54,17478
3402,35,17486
3403,53,17490
3404,79,17492
3405,30,17496
3406,146,17520
3407,220,17540
3408,41,17544
3409,146,17551
3410,178,17559
3411,210,17562
3412,7,17575
3413,192,17583
3414,66,17584
3415,60,17589
3416,7,17591
3417,62,17609
3418,85,17610
3419,222,17611
3420,28,17613
3421,37,17617
3422,6,17624
3423,103,17656
3424,115,50235
3425,178,50237
3426,100,50245
3427,141,50246
3428,106,50247
3429,216,50249
3430,199,50251
3431,187,50255
3432,9,50257
3433,9,50269
3434,76,50274
3435,102,50276
3436,200,50279
3437,204,50280
3438,126,50285
3439,14,50292
3440,39,50294
3441,210,50295
3442,92,50303
3443,13,50304
3444,159,50307
3445,141,50309
3446,92,50312
3447,56,50314
3448,100,50315
3449,200,50320
3450,13,50321
3451,29,50326
3452,179,50331
3453,11,50332
3454,165,50340
3455,136,50345
3456,95,2151
3457,111,2350
3458,104,2405
3459,159,2439
3460,158,2472
3461,180,2556
3462,150,3340
3463,8,3371
3464,179,3427
3465,67,3440
3466,32,3466
3467,107,3486
3468,199,4946
3469,118,4965
3470,66,4999
3471,108,5000
3472,9,5026
3473,216,5031
3474,32,5470
3475,58,5900
3476,120,5920
3477,60,5931
3478,5,6070
3479,206,6090
3480,9,6369
3481,206,6514
3482,192,7065
3483,145,7136
3484,41,7142
3485,76,7191
3486,228,7194
3487,148,7197
3488,51,43033
3489,68,43048
3490,209,43049
3491,20,43060
3492,147,43061
3493,37,43065
3494,102,43084
3495,145,43095
3496,14,43096
3497,187,43099
3498,160,43130
3499,192,43139
3500,41,43144
3501,123,43146
3502,159,43149
3503,67,43155
3504,74,43165
3505,222,43180
3506,14,43182
3507,221,43184
3508,141,43189
3509,27,43193
3510,32,43216
3511,84,43219
3512,46,43240
3513,64,43247
3514,185,43254
3515,107,43269
3516,103,43270
3517,200,43281
3518,102,43282
3519,21,43287
3520,108,16390
3521,132,16401
3522,51,16403
3523,200,16404
3524,4,16405
3525,0,16411
3526,103,16420
3527,161,16456
3528,37,16459
3529,185,16463
3530,113,16470
3531,14,16475
3532,67,16484
3533,74,16486
3534,14,16489
3535,159,16494
3536,158,16498
3537,158,16503
3538,180,16535
3539,22,16537
3540,56,16547
3541,7,16554
3542,46,16555
3543,125,16565
3544,66,16573
3545,160,16578
3546,194,16579
3547,206,16580
3548,102,16596
3549,70,16601
3550,88,16614
3551,46,16629
3552,178,21229
3553,19,21235
3554,32,21252
3555,209,21255
3556,24,21279
3557,210,21282
3558,101,21285
3559,125,21287
3560,29,21289
3561,27,21292
3562,32,21294
3563,122,21295
3564,7,21313
3565,150,21317
3566,121,21321
3567,127,21339
3568,53,21343
3569,216,21344
3570,0,21351
3571,228,21369
3572,155,21371
3573,189,21372
3574,146,21373
3575,174,21383
3576,117,21390
3577,159,21395
3578,67,21398
3579,172,21406
3580,100,21416
3581,146,21427
3582,172,21429
3583,179,21443
3584,7,21957
3585,27,22126
3586,107,22129
3587,32,22165
3588,72,22383
3589,79,22520
3590,192,23017
3591,122,23137
3592,114,23386
3593,69,23988
3594,130,24069
3595,206,26081
3596,96,26502
3597,178,31000
3598,184,32770
3599,51,32815
3600,92,32946
3601,77,33537
3602,10,33918
3603,56,34705
3604,2,34863
3605,118,34891
3606,66,34986
3607,34,35215
3608,92,35503
3609,64,47
3610,68,52
3611,32,66
3612,108,79
3613,1,115
3614,148,154
3615,51,166
3616,60,49913
3617,95,49914
3618,153,49920
3619,19,49922
3620,114,49925
3621,0,49931
3622,210,49934
3623,58,49950
3624,141,49978
3625,141,50000
3626,114,50008
3627,1,50009
3628,56,50010
3629,109,50012
3630,149,50017
3631,46,50025
3632,209,50028
3633,209,50037
3634,6,50045
3635,148,50053
3636,194,50055
3637,222,50057
3638,148,50083
3639,149,50088
3640,87,50094
3641,136,50096
3642,26,50099
3643,200,50101
3644,194,50115
3645,224,50128
3646,216,50146
3647,13,50149
3648,131,60474
3649,92,60475
3650,100,60476
3651,5,60477
3652,118,60478
3653,60,60479
3654,131,60480
3655,121,60482
3656,11,60483
3657,96,60484
3658,194,60485
3659,125,60486
3660,81,60487
3661,200,60488
3662,67,60489
3663,17,60490
3664,34,60491
3665,87,60492
3666,111,60493
3667,92,60495
3668,199,60496
3669,10,60497
3670,113,60498
3671,128,60499
3672,46,60500
3673,220,60501
3674,179,60502
3675,147,60503
3676,15,60504
3677,20,60505
3678,159,60506
3679,210,60507
3680,228,55447
3681,85,55448
3682,27,55449
3683,82,55450
3684,102,55452
3685,38,55456
3686,206,55464
3687,71,55465
3688,66,55468
3689,54,55469
3690,85,55471
3691,113,55473
3692,148,55474
3693,106,55476
3694,34,55477
3695,35,55480
3696,60,55489
3697,46,55490
3698,105,55492
3699,66,55494
3700,7,55495
3701,184,55497
3702,200,55498
3703,0,55499
3704,20,55500
3705,155,55504
3706,85,55508
3707,220,55511
3708,200,55512
3709,149,55515
3710,153,55525
3711,128,55527
3712,132,11022
3713,77,11028
3714,67,11042
3715,224,11048
3716,159,11059
3717,2,11063
3718,153,11069
3719,79,11107
3720,66,11112
3721,72,11120
3722,99,11127
3723,43,11182
3724,1,11206
3725,120,11213
3726,132,11226
3727,51,11229
3728,34,11268
3729,46,11278
3730,146,11300
3731,78,11335
3732,224,11365
3733,228,11367
3734,81,11380
3735,127,11387
3736,209,11392
3737,189,11394
3738,92,11412
3739,83,11420
3740,32,11429
3741,7,11450
3742,32,11464
3743,126,11472
3744,42,22802
3745,105,22819
3746,30,22820
3747,122,22825
3748,83,22826
3749,13,22835
3750,159,22846
3751,159,22854
3752,150,22855
3753,154,22858
3754,60,22859
3755,29,22868
3756,2,22869
3757,108,22875
3758,141,22882
3759,178,22893
3760,14,22899
3761,60,22910
3762,178,22911
3763,196,22914
3764,131,22919
3765,57,22929
3766,135,22931
3767,200,22953
3768,6,22959
3769,210,22968
3770,161,22978
3771,108,22980
3772,90,22989
3773,189,22995
3774,97,22997
3775,127,23015
3776,63,18275
3777,161,18278
3778,74,18282
3779,165,18295
3780,6,18303
3781,206,18307
3782,6,18310
3783,17,18311
3784,85,18321
3785,26,18326
3786,7,18334
3787,76,18343
3788,46,18356
3789,148,18363
3790,145,18364
3791,145,18365
3792,8,18369
3793,97,18411
3794,155,18429
3795,5,18436
3796,141,18439
3797,177,18471
3798,38,18486
3799,17,18487
3800,102,18488
3801,150,18494
3802,103,18504
3803,200,18507
3804,146,18508
3805,14,18510
3806,63,18522
3807,51,18530
3808,199,2985
3809,209,3027
3810,145,3028
3811,88,3038
3812,125,3060
3813,114,3088
3814,60,3208
3815,132,3297
3816,40,3388
3817,57,3392
3818,108,3549
3819,52,3569
3820,9,3604
3821,68,3633
3822,222,3739
3823,106,3740
3824,30,3786
3825,84,3789
3826,84,3794
3827,159,3805
3828,1,3810
3829,35,3830
3830,145,3836
3831,92,3945
3832,26,4052
3833,174,4065
3834,21,4112
3835,185,4155
3836,41,4188
3837,72,4193
3838,0,4199
3839,46,4208
3840,99,17309
3841,68,17338
3842,132,17346
3843,6,17352
3844,165,17385
3845,108,17394
3846,222,17406
3847,209,17418
3848,37,17420
3849,59,17429
3850,76,17430
3851,56,17443
3852,109,17459
3853,178,17473
3854,178,17483
3855,74,17497
3856,113,17505
3857,184,17518
3858,60,17530
3859,162,17536
3860,125,17539
3861,158,17541
3862,142,17545
3863,94,17553
3864,76,17595
3865,141,17601
3866,108,17615
3867,17,17618
3868,32,17633
3869,142,17639
3870,99,17644
3871,114,17657
3872,68,44731
3873,97,44737
3874,224,44742
3875,88,44749
3876,185,44751
3877,105,44752
3878,74,44759
3879,13,44767
3880,95,44770
3881,153,44778
3882,135,44792
3883,184,44794
3884,158,44799
3885,200,44800
3886,96,44814
3887,93,44815
3888,130,44819
3889,4,44829
3890,68,44834
3891,187,44841
3892,179,44842
3893,147,44847
3894,14,44857
3895,69,44859
3896,125,44860
3897,149,44861
3898,139,44868
3899,67,44869
3900,24,44871
3901,95,44873
3902,161,44875
3903,21,44884
3904,206,44848
3905,222,44852
3906,178,44855
3907,185,44864
3908,159,44866
3909,159,44870
3910,41,44872
3911,118,44874
3912,129,44879
3913,88,44880
3914,10,44883
3915,130,44885
3916,77,44887
3917,74,44896
3918,146,44897
3919,38,44898
3920,110,44900
3921,130,44901
3922,7,44905
3923,115,44921
3924,158,44924
3925,220,44926
3926,107,44932
3927,184,44933
3928,185,44941
3929,216,44942
3930,96,44957
3931,184,44964
3932,194,44966
3933,63,44967
3934,52,44968
3935,171,44969
3936,92,26180
3937,53,26182
3938,65,26199
3939,14,26202
3940,222,26203
3941,74,26204
3942,99,26210
3943,110,26220
3944,146,26231
3945,72,26235
3946,159,26236
3947,99,26238
3948,178,26239
3949,88,26242
3950,204,26243
3951,10,26245
3952,118,26246
3953,132,26253
3954,60,26254
3955,15,26262
3956,44,26263
3957,41,26275
3958,39,26277
3959,32,26286
3960,153,26288
3961,150,26291
3962,180,26294
3963,142,26296
3964,159,26299
3965,92,26303
3966,161,26310
3967,209,26312
3968,69,19473
3969,78,19505
3970,99,19513
3971,146,19520
3972,131,19521
3973,52,19534
3974,64,19546
3975,65,19551
3976,194,19563
3977,54,19567
3978,159,19568
3979,158,19569
3980,187,19580
3981,64,19586
3982,95,19590
3983,21,19593
3984,51,19610
3985,159,19612
3986,57,19614
3987,83,19616
3988,192,19621
3989,9,19626
3990,111,19627
3991,154,19633
3992,21,19642
3993,125,19652
3994,58,19654
3995,190,19657
3996,206,19668
3997,65,19671
3998,130,19673
3999,66,19684
4000,52,23261
4001,209,23264
4002,21,23290
4003,64,23307
4004,145,23318
4005,132,23330
4006,150,23331
4007,22,23334
4008,110,23338
4009,89,23340
4010,32,23354
4011,32,23383
4012,94,23388
4013,105,23394
4014,158,23404
4015,22,23408
4016,210,23448
4017,150,23455
4018,77,23479
4019,3,23482
4020,179,23484
4021,56,23492
4022,56,23494
4023,113,23503
4024,206,23509
4025,54,23512
4026,220,23514
4027,146,23515
4028,2,23517
4029,146,23527
4030,221,23537
4031,46,23543
4032,9,53214
4033,162,53217
4034,26,53218
4035,66,53219
4036,67,53226
4037,6,53242
4038,194,53247
4039,17,53248
4040,7,53252
4041,122,53253
4042,84,53256
4043,30,53258
4044,171,53260
4045,178,53261
4046,70,53263
4047,0,53265
4048,109,53271
4049,153,53276
4050,192,53277
4051,150,53278
4052,155,53281
4053,147,53282
4054,190,53284
4055,184,53286
4056,32,53288
4057,114,53291
4058,172,53292
4059,0,53293
4060,67,53296
4061,142,53297
4062,1,53306
4063,158,53307
4064,179,20535
4065,74,20536
4066,113,20554
4067,68,20564
4068,6,20580
4069,159,20581
4070,24,20582
4071,14,20598
4072,92,20600
4073,81,20603
4074,62,20606
4075,206,20608
4076,185,20620
4077,221,20626
4078,95,20642
4079,113,20644
4080,30,20647
4081,210,20654
4082,187,20660
4083,180,20663
4084,33,20664
4085,35,20671
4086,160,20680
4087,184,20686
4088,29,20691
4089,83,20703
4090,48,20731
4091,161,20734
4092,74,20736
4093,74,20740
4094,43,20742
4095,91,20746
4096,203,21325
4097,159,21327
4098,102,21329
4099,100,21337
4100,190,21349
4101,13,21362
4102,158,21364
4103,179,21367
4104,32,21378
4105,51,21384
4106,114,21386
4107,14,21401
4108,26,21424
4109,210,21425
4110,185,21426
4111,102,21430
4112,72,21435
4113,180,21442
4114,59,21446
4115,96,21460
4116,88,21471
4117,84,21472
4118,17,21473
4119,108,21484
4120,159,21487
4121,118,21492
4122,84,21495
4123,222,21496
4124,185,21500
4125,106,21518
4126,29,21534
4127,150,21537
4128,59,39612
4129,204,39614
4130,76,39617
4131,42,39626
4132,159,39634
4133,178,39639
4134,0,39643
4135,74,39644
4136,9,39662
4137,57,39673
4138,187,39675
4139,46,39677
4140,180,39684
4141,209,39692
4142,66,39695
4143,52,39697
4144,187,39703
4145,172,39704
4146,85,39708
4147,128,39709
4148,1,39711
4149,58,39726
4150,125,39738
4151,148,39749
4152,84,39753
4153,158,39755
4154,197,39759
4155,209,39768
4156,21,39770
4157,103,39772
4158,185,39784
4159,107,39785
4160,160,42228
4161,118,42232
4162,190,42235
4163,161,42236
4164,103,42237
4165,180,42239
4166,58,42241
4167,153,42242
4168,36,42249
4169,161,42251
4170,27,42261
4171,155,42266
4172,7,42268
4173,91,42276
4174,150,42277
4175,106,42287
4176,146,42291
4177,5,42292
4178,114,42302
4179,114,42307
4180,101,42308
4181,145,42317
4182,102,42320
4183,17,42322
4184,26,42325
4185,150,42328
4186,180,42338
4187,78,42339
4188,77,42340
4189,184,42343
4190,103,42346
4191,109,42347
4192,161,13389
4193,172,13401
4194,192,13405
4195,80,13409
4196,21,13418
4197,180,13424
4198,56,13447
4199,178,13455
4200,150,13466
4201,49,13481
4202,99,13519
4203,172,13526
4204,93,13531
4205,118,13536
4206,184,13537
4207,121,13549
4208,52,13553
4209,141,13561
4210,26,13589
4211,80,13597
4212,177,13627
4213,21,13638
4214,157,13648
4215,149,13649
4216,15,13652
4217,37,13666
4218,108,13673
4219,224,13689
4220,154,13695
4221,96,13699
4222,68,13743
4223,80,13745
4224,228,28228
4225,71,28229
4226,150,28231
4227,174,28233
4228,153,28234
4229,178,28238
4230,4,28244
4231,5,28246
4232,148,28247
4233,1,28255
4234,221,28257
4235,130,28260
4236,31,28261
4237,107,28270
4238,184,28275
4239,5,28279
4240,203,28281
4241,171,28283
4242,159,28286
4243,32,28288
4244,148,28301
4245,60,28302
4246,177,28307
4247,209,28311
4248,184,28313
4249,12,28317
4250,32,28322
4251,141,28323
4252,102,28325
4253,149,28330
4254,172,28331
4255,114,28333
4256,135,30165
4257,99,30166
4258,199,30170
4259,228,30172
4260,68,30175
4261,136,30176
4262,46,30177
4263,17,30178
4264,179,30192
4265,81,30195
4266,105,30212
4267,153,30215
4268,104,30216
4269,108,30223
4270,63,30224
4271,192,30225
4272,58,30233
4273,74,30234
4274,81,30235
4275,209,30236
4276,34,30238
4277,25,30241
4278,63,30244
4279,174,30251
4280,8,30255
4281,115,30263
4282,189,30270
4283,99,30271
4284,83,30273
4285,88,30275
4286,9,30279
4287,92,30284
4288,62,9117
4289,196,9118
4290,68,9122
4291,200,9132
4292,203,9133
4293,158,9148
4294,8,9155
4295,21,9167
4296,8,9176
4297,10,9188
4298,14,9190
4299,206,9196
4300,204,9201
4301,100,9210
4302,69,9212
4303,92,9215
4304,33,9219
4305,180,9227
4306,185,9230
4307,185,9237
4308,92,9240
4309,194,9241
4310,1,9242
4311,160,9246
4312,132,9252
4313,17,9258
4314,179,9265
4315,4,9269
4316,41,9282
4317,146,9286
4318,105,9287
4319,103,9291
4320,30,34904
4321,161,34909
4322,126,34947
4323,206,34965
4324,58,35012
4325,184,35025
4326,32,35072
4327,127,35201
4328,139,35255
4329,2,35296
4330,220,35305
4331,197,35344
4332,102,35395
4333,159,35443
4334,99,35594
4335,121,35683
4336,14,35823
4337,32,35862
4338,60,35866
4339,209,35877
4340,185,35938
4341,200,35964
4342,15,35966
4343,46,35984
4344,228,36018
4345,118,36176
4346,206,36260
4347,92,36414
4348,96,36444
4349,145,36572
4350,81,36842
4351,55,36851
4352,51,54461
4353,34,54469
4354,178,54470
4355,2,54471
4356,99,54472
4357,147,54473
4358,26,54476
4359,107,54479
4360,179,54480
4361,172,54481
4362,53,54488
4363,196,54493
4364,102,54496
4365,93,54501
4366,115,54503
4367,133,54504
4368,54,54506
4369,102,54509
4370,150,54515
4371,76,54516
4372,161,54520
4373,199,54523
4374,194,54532
4375,121,54533
4376,53,54537
4377,54,54541
4378,6,54543
4379,206,54546
4380,141,54547
4381,21,54548
4382,32,54552
4383,114,54559
4384,194,6934
4385,65,6940
4386,14,6941
4387,74,6953
4388,185,6954
4389,154,6974
4390,107,6990
4391,59,6993
4392,53,6995
4393,180,7012
4394,107,7017
4395,154,7021
4396,159,7047
4397,159,7048
4398,131,7061
4399,216,7066
4400,146,7067
4401,178,7071
4402,206,7100
4403,72,7101
4404,76,7112
4405,209,7113
4406,57,7114
4407,165,7129
4408,5,7132
4409,203,7137
4410,33,7155
4411,32,7167
4412,209,7175
4413,159,7176
4414,51,7177
4415,45,7186
4416,172,59036
4417,42,59037
4418,77,59038
4419,38,59039
4420,17,59041
4421,74,59043
4422,192,59044
4423,113,59045
4424,80,59046
4425,27,59047
4426,48,59048
4427,40,59049
4428,66,59050
4429,140,59051
4430,35,59052
4431,1,59053
4432,220,59054
4433,165,59056
4434,165,59057
4435,158,59060
4436,94,59061
4437,107,59062
4438,74,59064
4439,118,59065
4440,222,59066
4441,52,59067
4442,2,59068
4443,107,59070
4444,161,59072
4445,33,59073
4446,101,59074
4447,118,59076
4448,104,20442
4449,150,20449
4450,159,20451
4451,180,20453
4452,27,20458
4453,130,20460
4454,159,20471
4455,102,20484
4456,136,20495
4457,21,20498
4458,113,20524
4459,194,20546
4460,200,20548
4461,131,20551
4462,199,20559
4463,18,20568
4464,104,20583
4465,79,20589
4466,157,20592
4467,165,20594
4468,77,20597
4469,141,20602
4470,9,20604
4471,67,20611
4472,148,20624
4473,92,20640
4474,107,20641
4475,93,20643
4476,161,20662
4477,85,20681
4478,180,20689
4479,62,20695
4480,187,17922
4481,161,17923
4482,221,17926
4483,56,17929
4484,4,17936
4485,79,17944
4486,66,17959
4487,154,17965
4488,107,17977
4489,41,17986
4490,185,18004
4491,113,18026
4492,158,18030
4493,220,18035
4494,157,18038
4495,222,18064
4496,64,18078
4497,27,18086
4498,68,18094
4499,178,18098
4500,7,18108
4501,145,18112
4502,216,18124
4503,128,18125
4504,209,18140
4505,59,18158
4506,153,18159
4507,26,18188
4508,105,18192
4509,14,18226
4510,174,18238
4511,114,18239
4512,56,31367
4513,220,31370
4514,228,31373
4515,197,31374
4516,190,31376
4517,59,31377
4518,85,31379
4519,161,31380
4520,15,31381
4521,149,31384
4522,55,31385
4523,216,31387
4524,136,31388
4525,126,31389
4526,159,31392
4527,159,31397
4528,187,31404
4529,32,31407
4530,224,31415
4531,4,31416
4532,210,31418
4533,106,31426
4534,114,31430
4535,56,31431
4536,165,31435
4537,158,31436
4538,76,31437
4539,38,31439
4540,161,31446
4541,209,31450
4542,68,31454
4543,96,31455
4544,63,25099
4545,184,25100
4546,165,25107
4547,85,25112
4548,126,25121
4549,145,25128
4550,130,25138
4551,87,25148
4552,147,25154
4553,34,25155
4554,99,25168
4555,172,25170
4556,30,25171
4557,89,25174
4558,98,25175
4559,108,25193
4560,204,25202
4561,190,25204
4562,67,25207
4563,128,25209
4564,148,25210
4565,74,25228
4566,184,25241
4567,35,25242
4568,174,25245
4569,67,25247
4570,108,25258
4571,126,25265
4572,222,25273
4573,109,25280
4574,12,25288
4575,93,25291
4576,162,15242
4577,204,15259
4578,64,15262
4579,157,15267
4580,21,15274
4581,108,15319
4582,178,15325
4583,130,15340
4584,108,15341
4585,20,15344
4586,105,15350
4587,150,15366
4588,221,15373
4589,3,15386
4590,56,15403
4591,77,15419
4592,115,15424
4593,35,15442
4594,221,15448
4595,142,15451
4596,74,15456
4597,21,15489
4598,224,15497
4599,43,15507
4600,185,15533
4601,107,15537
4602,159,15549
4603,192,15550
4604,190,15565
4605,79,15575
4606,209,15588
4607,197,15600
4608,207,11626
4609,37,11631
4610,104,11636
4611,128,11677
4612,158,11678
4613,34,11694
4614,41,11708
4615,59,11709
4616,210,11710
4617,22,11711
4618,3,11724
4619,114,11725
4620,115,11759
4621,194,11768
4622,90,11776
4623,41,11809
4624,104,11818
4625,150,11821
4626,7,11831
4627,17,11874
4628,142,11880
4629,192,11886
4630,107,11913
4631,108,11917
4632,130,11927
4633,158,11943
4634,59,12016
4635,26,12033
4636,59,12049
4637,18,12060
4638,130,12091
4639,9,12126
4640,217,47799
4641,102,47800
4642,113,47806
4643,108,47808
4644,185,47810
4645,155,47812
4646,148,47820
4647,190,47823
4648,99,47829
4649,118,47836
4650,24,47838
4651,224,47840
4652,130,47841
4653,51,47842
4654,32,47843
4655,155,47844
4656,159,47847
4657,158,47851
4658,79,47854
4659,87,47858
4660,6,47859
4661,46,47861
4662,14,47876
4663,153,47880
4664,145,47882
4665,189,47883
4666,192,47885
4667,35,47892
4668,21,47895
4669,90,47896
4670,126,47899
4671,39,47900
4672,66,52616
4673,79,52620
4674,0,52626
4675,28,52627
4676,57,52628
4677,165,52629
4678,38,52631
4679,159,52640
4680,41,52642
4681,178,52646
4682,185,52647
4683,100,52648
4684,118,52649
4685,209,52653
4686,224,52656
4687,131,52659
4688,45,52666
4689,162,52668
4690,184,52673
4691,20,52674
4692,146,52675
4693,70,52679
4694,148,52681
4695,165,52683
4696,206,52684
4697,44,52687
4698,149,52688
4699,128,52695
4700,107,52697
4701,94,52699
4702,58,52703
4703,157,52707
4704,0,13768
4705,38,13901
4706,8,14038
4707,118,14049
4708,74,14060
4709,46,14358
4710,72,14503
4711,209,14742
4712,210,15547
4713,103,18348
4714,17,20264
4715,141,20651
4716,46,21558
4717,180,7
4718,136,208
4719,46,217
4720,206,286
4721,17,355
4722,76,389
4723,139,391
4724,58,411
4725,68,452
4726,178,463
4727,128,582
4728,172,589
4729,148,592
4730,68,651
4731,146,712
4732,9,723
4733,148,734
4734,150,948
4735,88,968
4736,45,13176
4737,154,13234
4738,136,13258
4739,154,13286
4740,83,13287
4741,48,13331
4742,135,13429
4743,141,13548
4744,158,13563
4745,69,13606
4746,2,13635
4747,220,13642
4748,21,13690
4749,35,13691
4750,74,13698
4751,200,13748
4752,18,13757
4753,34,13771
4754,85,13801
4755,206,13818
4756,82,13845
4757,21,13871
4758,85,13879
4759,148,13885
4760,149,13903
4761,154,13946
4762,209,13958
4763,36,13974
4764,192,13980
4765,94,13981
4766,128,13987
4767,106,14015
4768,125,203
4769,60,234
4770,2,237
4771,199,241
4772,103,269
4773,159,346
4774,158,365
4775,154,380
4776,159,407
4777,66,426
4778,0,455
4779,159,535
4780,33,549
4781,79,563
4782,159,576
4783,60,593
4784,179,596
4785,79,601
4786,161,610
4787,62,620
4788,148,628
4789,30,650
4790,8,660
4791,92,677
4792,34,690
4793,139,707
4794,122,721
4795,178,737
4796,111,739
4797,81,766
4798,130,767
4799,48,782
4800,153,19702
4801,60,19726
4802,200,19731
4803,1,19737
4804,177,19744
4805,51,19754
4806,224,19763
4807,53,19780
4808,93,19781
4809,27,19792
4810,85,19805
4811,177,19809
4812,199,19812
4813,27,19817
4814,32,19830
4815,194,19832
4816,161,19843
4817,199,19850
4818,185,19856
4819,104,19859
4820,161,19874
4821,154,19875
4822,44,19877
4823,62,19882
4824,154,19899
4825,148,19900
4826,209,19919
4827,92,19927
4828,180,19932
4829,184,19935
4830,180,19938
4831,178,19944
4832,203,27822
4833,30,27833
4834,52,27855
4835,94,27862
4836,78,27867
4837,74,27879
4838,54,27896
4839,64,27909
4840,64,27932
4841,58,27980
4842,8,27985
4843,51,27996
4844,180,28007
4845,114,28024
4846,158,28028
4847,192,28042
4848,34,28047
4849,192,28054
4850,185,28063
4851,8,28064
4852,17,28073
4853,91,28087
4854,35,28100
4855,2,28104
4856,52,28114
4857,206,28117
4858,146,28129
4859,115,28149
4860,10,28163
4861,7,28172
4862,79,28175
4863,85,28180
4864,184,20486
4865,88,20488
4866,126,20520
4867,147,20566
4868,100,20619
4869,64,20682
4870,160,20791
4871,132,20949
4872,81,20995
4873,46,21093
4874,16,21105
4875,44,21122
4876,71,21305
4877,14,21365
4878,177,21434
4879,157,21477
4880,204,21488
4881,30,21519
4882,178,21634
4883,224,21671
4884,62,21715
4885,55,21794
4886,25,21799
4887,117,21832
4888,26,21915
4889,160,21946
4890,57,21994
4891,64,22027
4892,32,22057
4893,136,22141
4894,102,22193
4895,56,22300
4896,206,29377
4897,109,29385
4898,210,29387
4899,2,29409
4900,44,29414
4901,220,29435
4902,85,29439
4903,93,29447
4904,114,29464
4905,196,29500
4906,85,29561
4907,62,29571
4908,148,29599
4909,102,29602
4910,189,29629
4911,196,29753
4912,32,29865
4913,59,29909
4914,35,29928
4915,60,29942
4916,203,29945
4917,189,29958
4918,192,29968
4919,187,29982
4920,179,29986
4921,114,29990
4922,150,30003
4923,35,30006
4924,159,30030
4925,22,30107
4926,209,30111
4927,111,30117
4928,96,36463
4929,35,36464
4930,5,36465
4931,179,36469
4932,107,36476
4933,118,36478
4934,35,36490
4935,85,36497
4936,159,36504
4937,228,36512
4938,33,36514
4939,20,36523
4940,126,36525
4941,158,36535
4942,189,36541
4943,194,36545
4944,209,36558
4945,210,36562
4946,69,36564
4947,118,36565
4948,88,36566
4949,135,36567
4950,37,36570
4951,73,36571
4952,145,36573
4953,3,36579
4954,81,36583
4955,21,36586
4956,111,36588
4957,32,36591
4958,110,36592
4959,114,36594
4960,38,37505
4961,150,37507
4962,199,37513
4963,184,37516
4964,136,37523
4965,8,37527
4966,162,37550
4967,158,37552
4968,62,37555
4969,67,37559
4970,114,37560
4971,32,37561
4972,172,37567
4973,41,37577
4974,105,37581
4975,10,37593
4976,222,37595
4977,150,37600
4978,204,37602
4979,154,37606
4980,199,37607
4981,206,37622
4982,128,37628
4983,59,37634
4984,157,37635
4985,66,37642
4986,113,37643
4987,187,37659
4988,118,37661
4989,196,37662
4990,147,37665
4991,60,37680
4992,10,18538
4993,206,18548
4994,1,18555
4995,125,18561
4996,77,18566
4997,48,18576
4998,32,18578
4999,153,18579
5000,26,18593
5001,88,18594
5002,94,18603
5003,67,18606
5004,162,18651
5005,38,18662
5006,141,18673
5007,30,18675
5008,69,18699
5009,41,18704
5010,139,18706
5011,136,18707
5012,199,18710
5013,89,18715
5014,84,18730
5015,228,18742
5016,196,18749
5017,92,18754
5018,161,18764
5019,184,18766
5020,102,18771
5021,130,18776
5022,62,18777
5023,52,18780
5024,127,41577
5025,72,41591
5026,162,41597
5027,54,41601
5028,62,41630
5029,174,41632
5030,62,41639
5031,5,41641
5032,209,41653
5033,77,41663
5034,32,41679
5035,127,41687
5036,4,41696
5037,46,41714
5038,80,41732
5039,128,41738
5040,64,41750
5041,64,41775
5042,115,41779
5043,199,41827
5044,142,41830
5045,161,41846
5046,220,41856
5047,222,41859
5048,9,41871
5049,204,41889
5050,27,41902
5051,85,41954
5052,121,41963
5053,21,41998
5054,7,42004
5055,95,42015
5056,154,31298
5057,135,31300
5058,62,31302
5059,79,31304
5060,184,31306
5061,204,31308
5062,110,31311
5063,7,31312
5064,123,31316
5065,68,31317
5066,30,31318
5067,147,31319
5068,52,31320
5069,118,31322
5070,6,31323
5071,200,31324
5072,28,31326
5073,197,31327
5074,88,31329
5075,76,31330
5076,209,31331
5077,60,31333
5078,209,31334
5079,96,31336
5080,177,31343
5081,200,31345
5082,31,31348
5083,28,31351
5084,125,31355
5085,38,31358
5086,1,31364
5087,110,31365
5088,221,48639
5089,157,48651
5090,149,48668
5091,10,48674
5092,76,48676
5093,10,48683
5094,69,48685
5095,57,48693
5096,110,48697
5097,0,48709
5098,46,48716
5099,16,48720
5100,216,48728
5101,199,48749
5102,54,48750
5103,159,48756
5104,126,48764
5105,51,48768
5106,147,48769
5107,33,48773
5108,220,48805
5109,77,48833
5110,42,48853
5111,203,48859
5112,79,48861
5113,206,48862
5114,48,48874
5115,54,48883
5116,63,48904
5117,9,48912
5118,30,48924
5119,160,48928
5120,210,35932
5121,204,35936
5122,220,35950
5123,96,35970
5124,0,35975
5125,200,36008
5126,179,36019
5127,185,36034
5128,14,36044
5129,39,36047
5130,64,36049
5131,79,36051
5132,159,36052
5133,221,36055
5134,67,36059
5135,33,36077
5136,147,36080
5137,158,36085
5138,128,36087
5139,30,36090
5140,60,36093
5141,142,36095
5142,89,36104
5143,199,36106
5144,32,36114
5145,200,36116
5146,146,36123
5147,190,36124
5148,149,36134
5149,118,36137
5150,34,36139
5151,83,36140
5152,67,35587
5153,29,35614
5154,43,35616
5155,62,35626
5156,209,35647
5157,92,35664
5158,180,35667
5159,178,35717
5160,33,35722
5161,177,35743
5162,34,35759
5163,210,35774
5164,85,35794
5165,63,35811
5166,85,35812
5167,10,35839
5168,216,35840
5169,7,35856
5170,92,35859
5171,110,35871
5172,196,35893
5173,192,35916
5174,121,35930
5175,68,35946
5176,35,35959
5177,203,35971
5178,92,35985
5179,122,35986
5180,150,35995
5181,15,36000
5182,101,36001
5183,67,36006
5184,158,22518
5185,92,22522
5186,100,22527
5187,174,22554
5188,197,22555
5189,128,22556
5190,199,22564
5191,206,22573
5192,4,22576
5193,60,22588
5194,13,22597
5195,58,22604
5196,96,22607
5197,99,22613
5198,178,22623
5199,19,22627
5200,5,22628
5201,178,22651
5202,2,22676
5203,10,22677
5204,58,22691
5205,189,22702
5206,154,22711
5207,165,22713
5208,40,22715
5209,51,22733
5210,220,22736
5211,154,22737
5212,51,22740
5213,104,22745
5214,158,22746
5215,80,22749
5216,72,40913
5217,95,40914
5218,77,40916
5219,7,40918
5220,147,40920
5221,56,40928
5222,61,40931
5223,3,40932
5224,56,40935
5225,135,40936
5226,210,40942
5227,102,40944
5228,180,40945
5229,72,40952
5230,28,40955
5231,149,40958
5232,139,40965
5233,189,40968
5234,17,40971
5235,64,40973
5236,41,40980
5237,180,40989
5238,187,40991
5239,68,40992
5240,14,40999
5241,206,41002
5242,159,41011
5243,180,41013
5244,203,41014
5245,52,41015
5246,190,41017
5247,199,41022
5248,56,40512
5249,174,40669
5250,220,40688
5251,160,40895
5252,81,40976
5253,57,40993
5254,101,41029
5255,158,41081
5256,172,41125
5257,26,41165
5258,66,41218
5259,177,41228
5260,33,41240
5261,29,41347
5262,60,41380
5263,118,41432
5264,55,41466
5265,95,41510
5266,114,41521
5267,165,41541
5268,141,41552
5269,108,41556
5270,46,41608
5271,149,41680
5272,158,41698
5273,160,41771
5274,148,41780
5275,113,41817
5276,44,41839
5277,126,41900
5278,126,41950
5279,177,41971
5280,145,9485
5281,85,9493
5282,102,9496
5283,29,9504
5284,145,9507
5285,146,9514
5286,92,9523
5287,1,9535
5288,15,9549
5289,224,9552
5290,84,9554
5291,9,9558
5292,74,9567
5293,189,9568
5294,42,9569
5295,56,9576
5296,115,9579
5297,76,9582
5298,194,9584
5299,57,9590
5300,102,9601
5301,33,9602
5302,88,9605
5303,160,9618
5304,92,9622
5305,10,9627
5306,32,9629
5307,29,9630
5308,7,9633
5309,32,9634
5310,118,9639
5311,187,9647
5312,118,17665
5313,179,17677
5314,43,17684
5315,57,17696
5316,52,17728
5317,224,17732
5318,209,17735
5319,56,17742
5320,224,17743
5321,174,17751
5322,68,17756
5323,180,17757
5324,85,17763
5325,79,17775
5326,57,17777
5327,76,17778
5328,145,17780
5329,222,17790
5330,194,17798
5331,38,17806
5332,14,17813
5333,67,17824
5334,135,17835
5335,172,17836
5336,51,17845
5337,159,17847
5338,180,17858
5339,30,17859
5340,32,17871
5341,48,17877
5342,111,17884
5343,9,17898
5344,34,46518
5345,113,46520
5346,157,46521
5347,209,46524
5348,10,46525
5349,147,46531
5350,48,46532
5351,6,46534
5352,177,46535
5353,100,46536
5354,54,46537
5355,85,46538
5356,84,46540
5357,153,46541
5358,153,46543
5359,159,46544
5360,102,46546
5361,172,46550
5362,197,46551
5363,158,46555
5364,109,46556
5365,74,46558
5366,108,46560
5367,7,46562
5368,81,46563
5369,12,46564
5370,101,46566
5371,57,46568
5372,165,46569
5373,27,46571
5374,171,46573
5375,16,46577
5376,228,46523
5377,14,46526
5378,221,46527
5379,44,46528
5380,88,46529
5381,35,46533
5382,200,46552
5383,67,46561
5384,107,46565
5385,66,46588
5386,48,46592
5387,49,46596
5388,27,46598
5389,179,46602
5390,34,46615
5391,185,46616
5392,66,46625
5393,84,46626
5394,149,46645
5395,184,46646
5396,174,46651
5397,159,46659
5398,221,46660
5399,200,46661
5400,206,46664
5401,129,46665
5402,159,46666
5403,34,46667
5404,206,46672
5405,104,46676
5406,96,46678
5407,1,46680
5408,39,8698
5409,41,8703
5410,21,8705
5411,29,8713
5412,18,8718
5413,206,8727
5414,8,8732
5415,185,8742
5416,2,8744
5417,206,8757
5418,105,8772
5419,145,8791
5420,32,8794
5421,161,8797
5422,46,8800
5423,108,8801
5424,179,8808
5425,174,8820
5426,58,8826
5427,159,8838
5428,190,8841
5429,206,8850
5430,88,8851
5431,10,8852
5432,103,8856
5433,153,8865
5434,21,8883
5435,17,8889
5436,33,8894
5437,157,8900
5438,184,8903
5439,149,8923
5440,206,50704
5441,35,50705
5442,66,50708
5443,83,50709
5444,145,50713
5445,126,50715
5446,51,50718
5447,51,50720
5448,158,50721
5449,100,50722
5450,127,50723
5451,102,50725
5452,63,50727
5453,206,50729
5454,109,50731
5455,92,50734
5456,178,50735
5457,14,50737
5458,2,50740
5459,222,50742
5460,55,50746
5461,69,50748
5462,197,50749
5463,35,50751
5464,79,50752
5465,206,50760
5466,179,50761
5467,209,50763
5468,95,50764
5469,125,50766
5470,107,50767
5471,198,50768
5472,154,56148
5473,199,56150
5474,146,56160
5475,63,56162
5476,114,56169
5477,107,56171
5478,32,56175
5479,122,56179
5480,146,56181
5481,72,56182
5482,177,56183
5483,44,56187
5484,206,56202
5485,128,56205
5486,159,56206
5487,187,56210
5488,118,56211
5489,57,56214
5490,66,56217
5491,161,56220
5492,159,56229
5493,35,56231
5494,14,56239
5495,178,56240
5496,64,56252
5497,224,56256
5498,95,56260
5499,114,56261
5500,30,56262
5501,80,56270
5502,37,56285
5503,27,56287
5504,52,57845
5505,199,57846
5506,100,57848
5507,9,57850
5508,178,57851
5509,13,57852
5510,158,57855
5511,159,57856
5512,187,57857
5513,118,57860
5514,77,57861
5515,113,57865
5516,56,57867
5517,94,57868
5518,6,57869
5519,108,57870
5520,185,57871
5521,104,57873
5522,80,57874
5523,126,57875
5524,106,57876
5525,199,57877
5526,5,57881
5527,88,57882
5528,178,57885
5529,60,57887
5530,85,57894
5531,7,57896
5532,114,57897
5533,108,57899
5534,20,57900
5535,83,57903
5536,139,41767
5537,92,41768
5538,9,41777
5539,14,41785
5540,204,41802
5541,126,41818
5542,159,41833
5543,118,41834
5544,64,41848
5545,35,41868
5546,77,41870
5547,220,41886
5548,194,41899
5549,41,41901
5550,203,41915
5551,46,41921
5552,160,41922
5553,64,41923
5554,96,41933
5555,68,41940
5556,44,41957
5557,184,41959
5558,121,41989
5559,141,41992
5560,159,41996
5561,84,42002
5562,33,42007
5563,132,42027
5564,113,42030
5565,15,42031
5566,30,42040
5567,157,42046
5568,178,44039
5569,7,44044
5570,148,44063
5571,66,44069
5572,130,44074
5573,187,44082
5574,189,44084
5575,179,44089
5576,62,44094
5577,6,44101
5578,221,44102
5579,101,44111
5580,130,44126
5581,149,44133
5582,105,44136
5583,206,44140
5584,194,44141
5585,150,44152
5586,107,44154
5587,24,44155
5588,187,44159
5589,131,44160
5590,76,44167
5591,148,44168
5592,10,44175
5593,114,44181
5594,130,44187
5595,33,44191
5596,91,44193
5597,32,44197
5598,132,44203
5599,216,44217
5600,10,51225
5601,35,51230
5602,62,51265
5603,142,51289
5604,99,51307
5605,159,51314
5606,148,51337
5607,216,51417
5608,107,51563
5609,147,51572
5610,92,51603
5611,7,51626
5612,206,51627
5613,81,51630
5614,158,51633
5615,220,51638
5616,177,51640
5617,159,51646
5618,67,51650
5619,111,51653
5620,106,51678
5621,63,51685
5622,66,51693
5623,228,51698
5624,51,51705
5625,0,51721
5626,62,51729
5627,159,51731
5628,92,51738
5629,153,51742
5630,194,51743
5631,7,51750
5632,147,41338
5633,102,41340
5634,57,41341
5635,46,41349
5636,184,41352
5637,15,41358
5638,37,41362
5639,102,41363
5640,221,41370
5641,37,41376
5642,158,41379
5643,187,41384
5644,114,41386
5645,53,41387
5646,88,41389
5647,171,41393
5648,180,41394
5649,78,41395
5650,10,41399
5651,159,41401
5652,44,41405
5653,56,41406
5654,118,41410
5655,27,41411
5656,72,41418
5657,15,41420
5658,81,41424
5659,128,41425
5660,14,41426
5661,68,41447
5662,6,41451
5663,17,41454
5664,206,6470
5665,111,6476
5666,14,6477
5667,179,6491
5668,57,6500
5669,189,6503
5670,37,6517
5671,132,6519
5672,159,6530
5673,189,6544
5674,136,6550
5675,131,6585
5676,204,6599
5677,187,6603
5678,17,6612
5679,92,6620
5680,159,6649
5681,199,6650
5682,63,6670
5683,130,6673
5684,161,6676
5685,110,6682
5686,41,6683
5687,4,6686
5688,172,6702
5689,30,6704
5690,174,6723
5691,7,6740
5692,25,6745
5693,92,6746
5694,2,6752
5695,46,6762
5696,194,8294
5697,1,8295
5698,9,8299
5699,216,8305
5700,199,8306
5701,187,8310
5702,161,8328
5703,113,8337
5704,32,8338
5705,17,8339
5706,114,8350
5707,141,8351
5708,128,8358
5709,184,8362
5710,81,8379
5711,105,8386
5712,184,8388
5713,145,8402
5714,10,8416
5715,68,8422
5716,105,8430
5717,153,8437
5718,57,8439
5719,56,8441
5720,153,8451
5721,108,8455
5722,171,8458
5723,30,8463
5724,52,8464
5725,79,8471
5726,136,8473
5727,126,8475
5728,72,30124
5729,125,30129
5730,132,30160
5731,148,30171
5732,165,30199
5733,102,30202
5734,158,30218
5735,17,30380
5736,57,30458
5737,115,30691
5738,157,30722
5739,64,30835
5740,113,30950
5741,41,30976
5742,76,30996
5743,126,31009
5744,103,31040
5745,66,31060
5746,206,31085
5747,92,31146
5748,190,31159
5749,113,31242
5750,96,31243
5751,148,31305
5752,95,31347
5753,63,31489
5754,157,31500
5755,153,31566
5756,85,31613
5757,123,31749
5758,178,31754
5759,46,31775
5760,154,30286
5761,228,30288
5762,194,30296
5763,221,30298
5764,127,30300
5765,32,30301
5766,105,30308
5767,91,30309
5768,153,30314
5769,32,30316
5770,50,30326
5771,60,30328
5772,146,30331
5773,34,30334
5774,45,30336
5775,3,30339
5776,148,30343
5777,85,30347
5778,92,30349
5779,132,30353
5780,158,30355
5781,159,30362
5782,37,30363
5783,141,30366
5784,200,30368
5785,148,30369
5786,56,30371
5787,0,30372
5788,140,30378
5789,59,30379
5790,149,30381
5791,161,30384
5792,145,12669
5793,34,12800
5794,109,12805
5795,51,12934
5796,99,13163
5797,145,13170
5798,120,13226
5799,6,13360
5800,77,13404
5801,74,13490
5802,108,13520
5803,93,13889
5804,4,13954
5805,172,14118
5806,41,14220
5807,123,14440
5808,3,14528
5809,126,14570
5810,84,14664
5811,185,14816
5812,184,14841
5813,192,14963
5814,27,15105
5815,60,15882
5816,19,15996
5817,150,16259
5818,165,16513
5819,184,17008
5820,103,20565
5821,178,22227
5822,69,22770
5823,46,23631
5824,82,16343
5825,122,16417
5826,2,16437
5827,34,16729
5828,185,16862
5829,77,16910
5830,94,16957
5831,113,17080
5832,24,17135
5833,221,17137
5834,184,17142
5835,73,17161
5836,220,17301
5837,60,17305
5838,179,17319
5839,222,17448
5840,89,18119
5841,159,18266
5842,177,18301
5843,222,18316
5844,82,18360
5845,60,18480
5846,126,18545
5847,158,18592
5848,51,18679
5849,9,18906
5850,150,19293
5851,69,19602
5852,146,21041
5853,160,21049
5854,101,21245
5855,206,21267
5856,96,36820
5857,153,36821
5858,66,36825
5859,32,36833
5860,185,36834
5861,142,36850
5862,69,36856
5863,97,36857
5864,180,36868
5865,154,36881
5866,178,36886
5867,20,36889
5868,118,36896
5869,62,36899
5870,34,36910
5871,52,36911
5872,114,36922
5873,46,36938
5874,206,36944
5875,184,36945
5876,14,36947
5877,130,36948
5878,96,36949
5879,85,36950
5880,153,36952
5881,114,36964
5882,19,36970
5883,117,36971
5884,69,36973
5885,63,36976
5886,60,36978
5887,57,36980
5888,194,59391
5889,154,59392
5890,114,59393
5891,14,59394
5892,128,59395
5893,41,59396
5894,14,59397
5895,18,59398
5896,159,59399
5897,114,59401
5898,107,59402
5899,153,59403
5900,206,59405
5901,11,59406
5902,9,59407
5903,101,59408
5904,90,59409
5905,149,59410
5906,69,59411
5907,177,59412
5908,199,59413
5909,141,59415
5910,199,59416
5911,85,59417
5912,5,59420
5913,130,59422
5914,174,59423
5915,146,59425
5916,187,59426
5917,44,59427
5918,122,59428
5919,159,59429
5920,51,20163
5921,44,20197
5922,99,20220
5923,101,20225
5924,206,20253
5925,38,20254
5926,51,20257
5927,158,20294
5928,224,20304
5929,70,20325
5930,178,20326
5931,113,20330
5932,228,20354
5933,207,20369
5934,145,20373
5935,26,20378
5936,26,20383
5937,184,20386
5938,159,20393
5939,192,20395
5940,179,20396
5941,67,20413
5942,209,20417
5943,65,20426
5944,92,20433
5945,222,20441
5946,204,20443
5947,76,20456
5948,32,20462
5949,99,20473
5950,72,20481
5951,178,20497
5952,15,32401
5953,46,32405
5954,196,32415
5955,52,32420
5956,15,32421
5957,209,32429
5958,159,32431
5959,62,32440
5960,110,32441
5961,57,32448
5962,108,32451
5963,79,32461
5964,204,32466
5965,209,32467
5966,9,32472
5967,174,32475
5968,159,32477
5969,220,32482
5970,26,32484
5971,149,32487
5972,123,32488
5973,10,32490
5974,203,32492
5975,171,32494
5976,187,32496
5977,161,32502
5978,80,32503
5979,172,32504
5980,100,32507
5981,84,32508
5982,184,32510
5983,24,32515
5984,102,20314
5985,54,20319
5986,150,20332
5987,220,20333
5988,200,20334
5989,7,20340
5990,95,20345
5991,174,20355
5992,85,20362
5993,56,20365
5994,131,20368
5995,158,20376
5996,81,20398
5997,135,20403
5998,192,20436
5999,135,20437
6000,7,20446
6001,46,20466
6002,85,20596
6003,196,20658
6004,7,20665
6005,121,20699
6006,158,20728
6007,126,20729
6008,32,20747
6009,32,20778
6010,41,20802
6011,129,20817
6012,9,20841
6013,44,20864
6014,117,20993
6015,196,21035
6016,88,9512
6017,187,9527
6018,88,9540
6019,139,9545
6020,172,9557
6021,120,9578
6022,5,9599
6023,150,9606
6024,54,9612
6025,206,9614
6026,69,9625
6027,70,9632
6028,46,9635
6029,209,9643
6030,196,9688
6031,136,9701
6032,222,9710
6033,67,9716
6034,153,9725
6035,145,9729
6036,13,9752
6037,71,9754
6038,136,10730
6039,81,10795
6040,79,10902
6041,199,11959
6042,220,11969
6043,197,12029
6044,203,12132
6045,2,12184
6046,99,12363
6047,153,12509
6048,54,23489
6049,21,23491
6050,33,23495
6051,92,23504
6052,1,23505
6053,165,23506
6054,81,23507
6055,148,23520
6056,103,23526
6057,180,23539
6058,161,23540
6059,79,23562
6060,96,23569
6061,145,23573
6062,88,23574
6063,206,23579
6064,224,23582
6065,161,23589
6066,0,23591
6067,37,23599
6068,105,23602
6069,158,23608
6070,79,23616
6071,131,23617
6072,79,23625
6073,161,23628
6074,178,23632
6075,131,23636
6076,196,23639
6077,70,23642
6078,153,23643
6079,38,23657
6080,68,53564
6081,85,53566
6082,57,53568
6083,17,53569
6084,96,53575
6085,18,53581
6086,159,53584
6087,52,53585
6088,35,53586
6089,128,53587
6090,41,53588
6091,81,53591
6092,76,53595
6093,206,53599
6094,85,53600
6095,102,53603
6096,17,53604
6097,228,53605
6098,172,53607
6099,146,53609
6100,72,53613
6101,71,53619
6102,187,53620
6103,99,53624
6104,6,53625
6105,18,53627
6106,126,53629
6107,130,53632
6108,64,53635
6109,113,53636
6110,92,53638
6111,113,53639
6112,81,4257
6113,159,4342
6114,8,4472
6115,74,4502
6116,114,4509
6117,158,4519
6118,126,4582
6119,118,4646
6120,209,4672
6121,184,4756
6122,46,4795
6123,79,4806
6124,10,4808
6125,148,4809
6126,2,4830
6127,222,4835
6128,105,4881
6129,154,4888
6130,55,5231
6131,8,5239
6132,32,5255
6133,206,5297
6134,26,5391
6135,81,5438
6136,102,5858
6137,81,5914
6138,9,6168
6139,32,6471
6140,150,6490
6141,6,6615
6142,32,6669
6143,179,7564
6144,31,57127
6145,159,57129
6146,168,57132
6147,68,57133
6148,63,57143
6149,62,57146
6150,130,57148
6151,196,57150
6152,192,57153
6153,189,57156
6154,35,57159
6155,184,57162
6156,54,57164
6157,62,57166
6158,14,57167
6159,46,57183
6160,103,57184
6161,56,57187
6162,72,57190
6163,130,57191
6164,180,57194
6165,62,57195
6166,5,57201
6167,74,57203
6168,221,57206
6169,118,57211
6170,79,57212
6171,158,57213
6172,55,57216
6173,158,57219
6174,147,57223
6175,196,57224
6176,174,489
6177,78,500
6178,8,509
6179,131,522
6180,154,532
6181,2,591
6182,38,623
6183,5,644
6184,2,658
6185,206,700
6186,159,701
6187,32,758
6188,88,781
6189,33,922
6190,105,1269
6191,108,1536
6192,118,1569
6193,145,1577
6194,221,1994
6195,50,1998
6196,128,2068
6197,33,2089
6198,145,2126
6199,64,2174
6200,81,2205
6201,1,2236
6202,179,2260
6203,130,2262
6204,114,2285
6205,161,2337
6206,53,2338
6207,146,2378
6208,1,22024
6209,154,22042
6210,94,22051
6211,93,22062
6212,56,22064
6213,149,22073
6214,2,22075
6215,130,22101
6216,77,22103
6217,220,22108
6218,158,22131
6219,189,22135
6220,67,22145
6221,66,22148
6222,54,22150
6223,84,22155
6224,10,22158
6225,79,22161
6226,52,22169
6227,150,22182
6228,104,22188
6229,14,22200
6230,162,22213
6231,200,22217
6232,2,22222
6233,81,22225
6234,180,22239
6235,199,22244
6236,102,22250
6237,172,22257
6238,72,22260
6239,115,22276
6240,109,8195
6241,101,8203
6242,113,8213
6243,41,8232
6244,174,8282
6245,102,8370
6246,99,8377
6247,150,8391
6248,200,8434
6249,153,8457
6250,146,8472
6251,44,8591
6252,172,8724
6253,30,8760
6254,6,8799
6255,5,8823
6256,99,8849
6257,85,8914
6258,32,8928
6259,29,8969
6260,103,8994
6261,52,9064
6262,142,9136
6263,179,9156
6264,179,9169
6265,19,9261
6266,159,9397
6267,2,9529
6268,145,9534
6269,44,9597
6270,81,9608
6271,121,9717
6272,105,10413
6273,141,10428
6274,76,10433
6275,190,10444
6276,161,10453
6277,189,10483
6278,95,10485
6279,51,10493
6280,93,10506
6281,203,10521
6282,35,10527
6283,83,10534
6284,177,10537
6285,60,10550
6286,96,10558
6287,38,10571
6288,0,10586
6289,113,10638
6290,68,10639
6291,70,10655
6292,32,10662
6293,122,10682
6294,76,10698
6295,114,10704
6296,27,10721
6297,44,10727
6298,26,10733
6299,197,10741
6300,189,10744
6301,68,10746
6302,27,10796
6303,81,10802
6304,56,24680
6305,147,24723
6306,185,24741
6307,149,24742
6308,108,24755
6309,190,24757
6310,189,24758
6311,63,24768
6312,21,24773
6313,58,24774
6314,55,24777
6315,110,24779
6316,29,24780
6317,179,24785
6318,149,24787
6319,174,24800
6320,115,24804
6321,18,24812
6322,177,24814
6323,84,24841
6324,224,24848
6325,2,24860
6326,148,24861
6327,145,24863
6328,99,24864
6329,92,24865
6330,125,24875
6331,197,24883
6332,29,24884
6333,145,24887
6334,41,24899
6335,155,24901
6336,206,10169
6337,128,10175
6338,37,10196
6339,209,10207
6340,80,10232
6341,222,10237
6342,150,10238
6343,130,10239
6344,85,10249
6345,6,10255
6346,162,10258
6347,35,10259
6348,99,10269
6349,197,10276
6350,128,10302
6351,17,10333
6352,92,10368
6353,131,10386
6354,82,10387
6355,92,10393
6356,196,10404
6357,51,10407
6358,118,10431
6359,66,10436
6360,38,10439
6361,147,10447
6362,103,10456
6363,5,10469
6364,141,10477
6365,179,10499
6366,160,10577
6367,9,10579
6368,80,13484
6369,109,13496
6370,95,13498
6371,56,13501
6372,103,13502
6373,107,13585
6374,149,13605
6375,203,13614
6376,102,13620
6377,118,13632
6378,127,13658
6379,128,13674
6380,184,13677
6381,32,13724
6382,145,13729
6383,108,13736
6384,131,13751
6385,18,13758
6386,7,13759
6387,88,13770
6388,142,13772
6389,177,13790
6390,99,13798
6391,85,13804
6392,142,13807
6393,93,13811
6394,1,13817
6395,179,13830
6396,83,13853
6397,158,13854
6398,204,13861
6399,141,13878
6400,194,29802
6401,206,29805
6402,24,29808
6403,177,29811
6404,155,29812
6405,149,29821
6406,204,29825
6407,122,29826
6408,159,29828
6409,85,29835
6410,64,29843
6411,14,29851
6412,84,29860
6413,105,29868
6414,51,29869
6415,29,29871
6416,51,29874
6417,122,29896
6418,118,29898
6419,192,29899
6420,145,29903
6421,185,29915
6422,149,29917
6423,41,29921
6424,158,29939
6425,130,29940
6426,88,29956
6427,60,29965
6428,130,29967
6429,145,29969
6430,60,29971
6431,24,29981
6432,26,42106
6433,71,42108
6434,159,42110
6435,131,42111
6436,30,42114
6437,159,42118
6438,60,42124
6439,57,42125
6440,94,42134
6441,148,42135
6442,126,42137
6443,165,42139
6444,118,42148
6445,95,42153
6446,200,42157
6447,26,42158
6448,33,42159
6449,38,42174
6450,154,42177
6451,59,42178
6452,161,42188
6453,104,42192
6454,7,42202
6455,161,42203
6456,142,42206
6457,114,42208
6458,68,42209
6459,9,42212
6460,180,42213
6461,88,42215
6462,1,42218
6463,159,42224
6464,99,1438
6465,187,1445
6466,68,1449
6467,206,1460
6468,165,1481
6469,103,1498
6470,4,1513
6471,88,1525
6472,99,1527
6473,130,1533
6474,60,1542
6475,194,1550
6476,88,1560
6477,8,1567
6478,28,1592
6479,69,1596
6480,85,1599
6481,189,1609
6482,105,1611
6483,0,1615
6484,77,1617
6485,46,1631
6486,84,1645
6487,159,1739
6488,57,1769
6489,178,1800
6490,37,1803
6491,33,1813
6492,32,1910
6493,196,1916
6494,88,1924
6495,71,1929
6496,26,13004
6497,55,13023
6498,159,13027
6499,180,13061
6500,142,13063
6501,80,13073
6502,41,13078
6503,85,13089
6504,33,13101
6505,145,13110
6506,194,13160
6507,126,13171
6508,43,13179
6509,9,13190
6510,220,13191
6511,172,13236
6512,209,13241
6513,209,13264
6514,206,13265
6515,11,13269
6516,128,13271
6517,18,13307
6518,106,13311
6519,73,13329
6520,8,13334
6521,204,13342
6522,206,13359
6523,210,13385
6524,117,13387
6525,44,13388
6526,159,13402
6527,78,13430
6528,35,20292
6529,199,20295
6530,131,20311
6531,209,20318
6532,3,20320
6533,71,20322
6534,102,20339
6535,159,20343
6536,185,20349
6537,147,20351
6538,103,20352
6539,160,20353
6540,66,20357
6541,15,20388
6542,59,20397
6543,5,20402
6544,130,20410
6545,53,20414
6546,71,20425
6547,118,20427
6548,10,20428
6549,127,20432
6550,220,20435
6551,210,20448
6552,172,20469
6553,220,20479
6554,53,20491
6555,128,20510
6556,21,20512
6557,0,20519
6558,51,20528
6559,39,20530
6560,74,28988
6561,105,28990
6562,24,28996
6563,192,28997
6564,14,28998
6565,46,28999
6566,8,29004
6567,74,29006
6568,192,29007
6569,203,29010
6570,17,29019
6571,174,29021
6572,78,29022
6573,51,29027
6574,95,29029
6575,118,29031
6576,158,29036
6577,206,29038
6578,56,29044
6579,117,29047
6580,14,29054
6581,179,29059
6582,125,29060
6583,34,29063
6584,194,29069
6585,209,29070
6586,117,29071
6587,58,29073
6588,128,29078
6589,8,29081
6590,74,29086
6591,130,29089
6592,85,51953
6593,2,51954
6594,199,51958
6595,74,51960
6596,10,51966
6597,118,51974
6598,135,51978
6599,29,51979
6600,21,51984
6601,149,51986
6602,15,51991
6603,159,51996
6604,165,52001
6605,179,52004
6606,108,52005
6607,34,52007
6608,28,52011
6609,77,52014
6610,84,52019
6611,0,52020
6612,194,52021
6613,210,52023
6614,185,52024
6615,95,52025
6616,228,52026
6617,107,52029
6618,121,52032
6619,74,52034
6620,147,52038
6621,99,52041
6622,71,52043
6623,146,52045
6624,8,1927
6625,0,2044
6626,141,2641
6627,30,2799
6628,184,2837
6629,206,2881
6630,100,2970
6631,180,3191
6632,72,3243
6633,108,3396
6634,46,3588
6635,220,3671
6636,184,3858
6637,118,3882
6638,41,3930
6639,68,3953
6640,111,4117
6641,185,4403
6642,51,5299
6643,139,5506
6644,33,5776
6645,35,5980
6646,148,10435
6647,184,10582
6648,189,88
6649,114,130
6650,101,135
6651,74,193
6652,206,229
6653,17,318
6654,196,412
6655,196,1092
6656,103,50207
6657,145,50209
6658,220,50212
6659,17,50215
6660,139,50216
6661,16,50221
6662,125,50225
6663,154,50227
6664,158,50230
6665,153,50231
6666,72,50232
6667,157,50233
6668,157,50236
6669,79,50238
6670,177,50239
6671,123,50242
6672,155,50244
6673,30,50248
6674,103,50253
6675,7,50254
6676,200,50256
6677,150,50258
6678,189,50259
6679,101,50260
6680,132,50261
6681,93,50264
6682,32,50265
6683,174,50266
6684,66,50268
6685,130,50271
6686,189,50272
6687,130,50273
6688,26,23126
6689,44,23143
6690,121,23212
6691,185,23216
6692,185,23219
6693,160,23258
6694,32,23266
6695,32,23274
6696,35,23275
6697,204,23277
6698,46,23301
6699,72,23302
6700,79,23303
6701,46,23309
6702,158,23316
6703,142,23326
6704,0,23329
6705,158,23335
6706,159,23400
6707,171,23418
6708,37,23420
6709,26,23422
6710,224,23432
6711,72,23443
6712,180,23593
6713,101,23627
6714,60,23635
6715,135,23708
6716,171,23740
6717,222,23758
6718,159,23813
6719,130,23820
6720,96,26043
6721,14,26045
6722,76,26047
6723,80,26050
6724,0,26068
6725,94,26070
6726,8,26076
6727,135,26083
6728,24,26085
6729,125,26086
6730,0,26089
6731,148,26102
6732,113,26112
6733,85,26125
6734,132,26126
6735,93,26129
6736,21,26142
6737,2,26145
6738,221,26148
6739,224,26152
6740,145,26159
6741,146,26166
6742,32,26169
6743,81,26172
6744,127,26178
6745,142,26179
6746,149,26184
6747,139,26189
6748,145,26190
6749,210,26200
6750,184,26213
6751,21,26215
6752,113,30990
6753,200,30994
6754,194,30995
6755,5,31032
6756,19,31037
6757,10,31047
6758,103,31076
6759,2,31078
6760,39,31094
6761,149,31116
6762,48,31138
6763,185,31147
6764,224,31153
6765,161,31157
6766,26,31161
6767,113,31167
6768,200,31186
6769,125,31193
6770,103,31200
6771,102,31214
6772,49,31216
6773,107,31221
6774,209,31222
6775,37,31223
6776,66,31244
6777,100,31249
6778,103,31253
6779,43,31268
6780,26,31272
6781,74,31274
6782,7,31278
6783,72,31281
6784,118,43291
6785,114,43303
6786,162,43313
6787,17,43314
6788,36,43316
6789,203,43322
6790,17,43331
6791,130,43334
6792,37,43362
6793,51,43370
6794,210,43389
6795,55,43395
6796,32,43411
6797,209,43412
6798,32,43442
6799,157,43449
6800,67,43450
6801,26,43494
6802,76,43506
6803,220,43523
6804,34,43531
6805,68,43534
6806,56,43537
6807,114,43551
6808,71,43579
6809,172,43582
6810,126,43590
6811,37,43596
6812,149,43601
6813,4,43618
6814,190,43642
6815,5,43655
6816,158,45064
6817,9,45065
6818,113,45069
6819,52,45070
6820,130,45076
6821,108,45077
6822,150,45084
6823,146,45088
6824,52,45089
6825,72,45090
6826,11,45091
6827,131,45093
6828,199,45094
6829,56,45101
6830,102,45106
6831,65,45110
6832,228,45112
6833,216,45113
6834,100,45116
6835,81,45117
6836,145,45118
6837,180,45125
6838,159,45139
6839,66,45156
6840,199,45159
6841,158,45160
6842,221,45164
6843,180,45167
6844,149,45168
6845,81,45171
6846,132,45182
6847,179,45184
6848,85,39547
6849,50,39555
6850,146,39563
6851,90,39568
6852,99,39570
6853,111,39571
6854,29,39575
6855,194,39576
6856,88,39579
6857,105,39580
6858,17,39581
6859,185,39590
6860,178,39592
6861,200,39596
6862,150,39598
6863,132,39606
6864,15,39615
6865,28,39625
6866,159,39635
6867,32,39666
6868,49,39674
6869,159,39680
6870,105,39696
6871,228,39712
6872,60,39719
6873,203,39721
6874,220,39731
6875,206,39739
6876,79,39745
6877,150,39750
6878,150,39757
6879,149,39758
6880,185,4125
6881,29,4157
6882,161,4160
6883,76,4180
6884,32,4200
6885,187,4213
6886,43,4219
6887,174,4221
6888,209,4387
6889,8,4422
6890,88,4423
6891,159,4438
6892,179,4450
6893,76,4533
6894,2,4545
6895,158,4598
6896,150,4683
6897,6,4759
6898,76,4802
6899,8,4828
6900,200,5106
6901,32,5108
6902,128,5142
6903,180,5163
6904,46,5194
6905,93,5228
6906,23,5230
6907,206,5472
6908,179,5524
6909,108,5559
6910,132,5566
6911,224,5581
6912,33,52128
6913,19,52132
6914,67,52134
6915,77,52135
6916,67,52141
6917,145,52144
6918,162,52148
6919,84,52149
6920,118,52155
6921,74,52157
6922,131,52170
6923,29,52178
6924,62,52179
6925,222,52182
6926,2,52184
6927,222,52185
6928,62,52187
6929,2,52189
6930,171,52199
6931,159,52208
6932,31,52211
6933,6,52212
6934,91,52215
6935,6,52217
6936,27,52219
6937,216,52220
6938,78,52221
6939,184,52224
6940,88,52228
6941,158,52229
6942,174,52231
6943,68,52232
6944,27,5312
6945,6,5327
6946,179,5372
6947,159,5374
6948,206,5408
6949,204,5419
6950,5,5423
6951,7,5424
6952,130,5489
6953,44,5501
6954,123,5504
6955,49,5512
6956,26,5519
6957,69,5544
6958,179,5673
6959,32,5733
6960,74,5777
6961,8,5841
6962,92,5898
6963,66,5967
6964,76,6002
6965,150,6092
6966,1,6151
6967,68,6201
6968,15,6202
6969,158,6215
6970,72,6230
6971,94,6242
6972,105,6244
6973,32,6246
6974,38,6264
6975,132,6274
6976,101,25969
6977,114,25993
6978,128,25995
6979,184,25996
6980,24,26009
6981,154,26015
6982,128,26023
6983,14,26026
6984,46,26029
6985,126,26031
6986,1,26034
6987,185,26037
6988,146,26048
6989,41,26059
6990,54,26063
6991,66,26077
6992,178,26078
6993,104,26087
6994,154,26088
6995,100,26110
6996,159,26113
6997,210,26114
6998,206,26122
6999,103,26133
7000,29,26135
7001,165,26138
7002,58,26147
7003,210,26149
7004,88,26151
7005,96,26153
7006,46,26160
7007,14,26167
7008,103,18143
7009,51,18145
7010,132,18154
7011,99,18163
7012,196,18177
7013,101,18190
7014,108,18195
7015,105,18220
7016,63,18221
7017,210,18240
7018,222,18294
7019,194,18299
7020,148,18315
7021,7,18317
7022,160,18320
7023,62,18340
7024,30,18345
7025,85,18358
7026,51,18373
7027,158,18374
7028,187,18375
7029,159,18376
7030,158,18377
7031,5,18381
7032,184,18383
7033,222,18404
7034,18,18423
7035,179,18427
7036,60,18432
7037,77,18440
7038,3,18459
7039,32,18464
7040,85,32833
7041,118,32848
7042,147,32852
7043,206,32856
7044,21,32858
7045,96,32866
7046,71,32876
7047,180,32877
7048,84,32881
7049,155,32882
7050,41,32895
7051,84,32905
7052,84,32909
7053,146,32910
7054,7,32912
7055,27,32913
7056,67,32920
7057,5,32929
7058,103,32935
7059,177,32938
7060,228,32942
7061,106,32945
7062,154,32947
7063,60,32951
7064,222,32976
7065,228,33007
7066,161,33010
7067,149,33011
7068,108,33026
7069,153,33027
7070,26,33030
7071,130,33043
7072,199,41745
7073,78,41758
7074,53,41761
7075,149,41762
7076,56,41764
7077,158,41781
7078,17,41782
7079,74,41788
7080,105,41791
7081,126,41792
7082,158,41794
7083,15,41797
7084,50,41800
7085,132,41811
7086,72,41813
7087,6,41814
7088,5,41819
7089,94,41820
7090,224,41826
7091,108,41829
7092,43,41832
7093,159,41836
7094,131,41844
7095,32,41845
7096,15,41847
7097,187,41855
7098,68,41861
7099,67,41863
7100,204,41869
7101,95,41879
7102,14,41882
7103,52,41883
7104,190,14383
7105,70,14431
7106,200,14451
7107,222,14459
7108,132,14467
7109,122,14486
7110,79,14487
7111,132,14509
7112,9,14516
7113,101,14521
7114,76,14527
7115,104,14540
7116,103,14541
7117,94,14571
7118,147,14598
7119,139,14602
7120,120,14613
7121,102,14657
7122,159,14671
7123,2,14673
7124,74,14683
7125,99,14690
7126,15,14723
7127,159,14724
7128,165,14744
7129,92,14758
7130,68,14776
7131,187,14787
7132,157,14825
7133,14,14844
7134,29,14854
7135,228,14894
7136,14,46741
7137,92,46742
7138,24,46746
7139,67,46749
7140,48,46753
7141,220,46756
7142,114,46757
7143,153,46759
7144,160,46766
7145,76,46768
7146,101,46769
7147,55,46775
7148,77,46782
7149,153,46785
7150,67,46786
7151,57,46788
7152,125,46791
7153,206,46792
7154,200,46799
7155,156,46800
7156,96,46801
7157,85,46806
7158,108,46810
7159,147,46813
7160,157,46814
7161,62,46816
7162,6,46818
7163,29,46819
7164,150,46820
7165,125,46821
7166,141,46824
7167,178,46825
7168,194,8239
7169,184,8256
7170,209,8286
7171,153,8320
7172,174,8327
7173,145,8331
7174,32,8378
7175,76,8417
7176,125,8420
7177,85,8443
7178,141,8456
7179,14,8487
7180,1,8495
7181,26,8507
7182,210,8575
7183,165,8582
7184,29,8588
7185,204,8595
7186,220,8637
7187,68,8644
7188,187,8646
7189,178,8656
7190,49,8687
7191,179,8696
7192,145,8708
7193,185,8709
7194,88,8729
7195,53,8733
7196,200,8753
7197,38,8793
7198,96,8806
7199,26,8817
7200,58,40513
7201,135,40523
7202,153,40526
7203,21,40529
7204,60,40534
7205,221,40544
7206,32,40547
7207,14,40551
7208,93,40557
7209,81,40558
7210,141,40560
7211,76,40562
7212,46,40574
7213,81,40580
7214,224,40583
7215,123,40587
7216,30,40591
7217,33,40595
7218,76,40596
7219,104,40597
7220,32,40599
7221,153,40612
7222,6,40613
7223,71,40632
7224,174,40634
7225,148,40645
7226,145,40649
7227,192,40651
7228,174,40656
7229,146,40664
7230,26,40670
7231,52,40671
7232,80,26898
7233,162,26914
7234,102,26915
7235,62,26917
7236,16,26918
7237,190,26929
7238,126,26933
7239,24,26937
7240,57,26946
7241,149,26958
7242,79,26963
7243,161,26966
7244,85,26972
7245,184,26973
7246,117,26976
7247,5,26977
7248,102,26978
7249,59,26980
7250,130,26983
7251,70,26986
7252,185,26991
7253,203,26999
7254,171,27012
7255,224,27016
7256,150,27018
7257,206,27020
7258,85,27024
7259,35,27028
7260,8,27033
7261,33,27035
7262,64,27048
7263,113,27051
7264,32,2071
7265,74,2092
7266,64,2108
7267,38,2134
7268,72,2137
7269,110,2160
7270,42,2164
7271,108,2191
7272,64,2192
7273,113,2224
7274,154,2237
7275,102,2243
7276,69,2258
7277,91,2286
7278,0,2304
7279,4,2313
7280,101,2334
7281,114,2344
7282,56,2349
7283,159,2352
7284,158,2363
7285,68,2371
7286,10,2400
7287,99,2404
7288,189,2413
7289,114,2414
7290,1,2417
7291,189,2424
7292,154,2432
7293,76,2454
7294,161,2464
7295,153,2471
7296,26,5196
7297,158,5198
7298,224,5201
7299,185,5232
7300,66,5266
7301,111,5357
7302,161,5375
7303,161,5379
7304,33,5409
7305,130,5437
7306,185,5446
7307,216,5453
7308,41,5461
7309,196,5462
7310,85,5476
7311,93,5485
7312,66,5487
7313,147,5496
7314,35,5507
7315,209,5513
7316,118,5525
7317,20,5541
7318,4,5560
7319,158,5585
7320,114,5591
7321,88,5598
7322,118,5615
7323,64,5628
7324,29,5646
7325,206,5648
7326,74,5674
7327,108,5693
7328,84,44565
7329,221,44567
7330,194,44568
7331,26,44571
7332,121,44579
7333,125,44583
7334,149,44584
7335,17,44588
7336,106,44591
7337,1,44592
7338,179,44593
7339,113,44601
7340,141,44603
7341,66,44611
7342,18,44612
7343,224,44613
7344,105,44619
7345,32,44622
7346,81,44631
7347,178,44634
7348,179,44635
7349,148,44636
7350,35,44637
7351,7,44638
7352,50,44639
7353,1,44640
7354,172,44644
7355,150,44648
7356,92,44651
7357,46,44653
7358,216,44654
7359,99,44659
7360,159,39015
7361,105,39024
7362,130,39025
7363,133,39038
7364,71,39054
7365,57,39057
7366,224,39061
7367,224,39077
7368,155,39088
7369,44,39102
7370,14,39112
7371,6,39135
7372,154,39136
7373,12,39146
7374,185,39151
7375,146,39158
7376,194,39163
7377,161,39165
7378,222,39166
7379,59,39167
7380,44,39176
7381,76,39178
7382,9,39181
7383,96,39183
7384,178,39187
7385,93,39188
7386,150,39216
7387,92,39226
7388,118,39228
7389,0,39229
7390,32,39234
7391,15,39243
7392,145,26439
7393,102,26448
7394,118,26449
7395,161,26451
7396,69,26452
7397,58,26454
7398,204,26465
7399,210,26473
7400,206,26476
7401,192,26484
7402,147,26486
7403,9,26489
7404,135,26516
7405,128,26517
7406,88,26524
7407,17,26536
7408,54,26541
7409,131,26544
7410,108,26548
7411,76,26550
7412,102,26553
7413,197,26564
7414,66,26568
7415,141,26574
7416,63,26592
7417,1,26607
7418,126,26613
7419,79,26615
7420,35,26617
7421,185,26639
7422,92,26642
7423,209,26644
7424,102,20429
7425,147,20461
7426,136,20476
7427,46,20478
7428,142,20480
7429,79,20490
7430,77,20492
7431,2,20496
7432,60,20501
7433,57,20509
7434,224,20516
7435,33,20527
7436,150,20539
7437,111,20542
7438,13,20552
7439,101,20563
7440,189,20573
7441,18,20574
7442,32,20593
7443,73,20614
7444,185,20617
7445,179,20628
7446,32,20629
7447,155,20637
7448,79,20645
7449,100,20648
7450,228,20652
7451,113,20656
7452,184,20659
7453,192,20667
7454,194,20670
7455,41,20678
7456,26,31482
7457,194,31534
7458,131,31547
7459,128,31559
7460,180,31625
7461,179,31660
7462,165,31703
7463,159,31725
7464,99,31747
7465,93,31753
7466,64,31762
7467,13,31766
7468,121,31772
7469,29,31780
7470,228,31781
7471,66,31782
7472,32,31795
7473,74,31797
7474,79,31812
7475,209,31816
7476,35,31847
7477,114,31853
7478,56,31861
7479,130,31863
7480,224,31871
7481,115,31887
7482,105,31906
7483,2,31908
7484,216,31925
7485,72,31926
7486,91,31929
7487,83,31931
7488,115,1193
7489,67,1217
7490,161,1237
7491,29,1282
7492,7,1336
7493,132,1371
7494,81,1374
7495,185,1386
7496,108,1389
7497,108,1427
7498,58,1450
7499,174,1487
7500,114,1495
7501,90,1520
7502,14,1522
7503,178,1524
7504,127,1538
7505,107,1564
7506,161,1610
7507,206,1614
7508,185,1620
7509,200,1623
7510,21,1634
7511,155,1650
7512,74,1664
7513,77,1698
7514,8,1708
7515,60,1713
7516,206,1753
7517,46,1755
7518,84,1756
7519,42,1768
7520,42,40606
7521,53,40626
7522,222,40630
7523,71,40723
7524,106,40745
7525,109,40818
7526,228,40842
7527,8,40961
7528,44,40982
7529,7,41021
7530,93,41023
7531,161,41033
7532,228,41048
7533,59,41086
7534,135,41100
7535,165,41154
7536,110,41202
7537,135,41203
7538,90,41204
7539,46,41229
7540,1,41241
7541,44,41274
7542,99,41279
7543,146,41283
7544,68,41304
7545,185,41308
7546,153,41323
7547,62,41324
7548,57,41350
7549,92,41375
7550,24,41383
7551,78,41404
7552,194,12053
7553,32,12058
7554,32,12067
7555,159,12076
7556,90,12084
7557,62,12093
7558,92,12109
7559,209,12145
7560,228,12167
7561,14,12169
7562,56,12177
7563,93,12199
7564,158,12202
7565,118,12213
7566,103,12224
7567,37,12226
7568,149,12230
7569,159,12245
7570,180,12252
7571,0,12254
7572,60,12260
7573,147,12288
7574,108,12289
7575,77,12301
7576,184,12304
7577,106,12314
7578,99,12331
7579,44,12357
7580,81,12369
7581,180,12372
7582,84,12381
7583,178,12392
7584,72,12577
7585,194,12578
7586,153,12584
7587,37,12605
7588,69,12644
7589,102,12647
7590,139,12661
7591,209,12676
7592,92,12681
7593,95,12682
7594,185,12683
7595,126,12721
7596,14,12748
7597,45,12754
7598,102,12758
7599,200,12779
7600,160,12787
7601,150,12788
7602,228,12792
7603,135,12793
7604,32,12803
7605,139,12831
7606,108,12833
7607,88,12842
7608,224,12843
7609,177,12849
7610,131,12859
7611,153,12890
7612,69,12896
7613,184,12897
7614,52,12911
7615,63,12954
7616,204,12263
7617,92,12282
7618,24,12285
7619,141,12292
7620,14,12307
7621,146,12310
7622,204,12345
7623,146,12359
7624,85,12371
7625,145,12383
7626,149,12385
7627,74,12389
7628,146,12402
7629,196,12409
7630,159,12414
7631,72,12423
7632,129,12433
7633,157,12438
7634,84,12444
7635,148,12450
7636,52,12460
7637,5,12477
7638,77,12507
7639,172,12526
7640,38,12539
7641,51,12567
7642,99,12572
7643,1,12585
7644,52,12590
7645,7,12612
7646,165,12624
7647,150,12625
7648,102,7279
7649,17,7281
7650,126,7282
7651,224,7308
7652,118,7312
7653,204,7314
7654,154,7315
7655,145,7320
7656,114,7323
7657,17,7325
7658,62,7346
7659,174,7347
7660,66,7351
7661,69,7355
7662,79,7373
7663,96,7375
7664,178,7377
7665,159,7382
7666,96,7387
7667,89,7394
7668,41,7400
7669,39,7423
7670,57,7429
7671,155,7445
7672,33,7456
7673,46,7457
7674,9,7460
7675,67,7468
7676,10,7473
7677,130,7475
7678,108,7494
7679,56,7496
7680,171,39245
7681,108,39391
7682,114,39407
7683,125,39437
7684,159,39452
7685,52,39587
7686,0,39604
7687,32,39633
7688,60,39682
7689,3,39833
7690,148,39891
7691,3,40318
7692,77,40487
7693,190,40600
7694,101,40800
7695,204,41064
7696,88,41088
7697,204,41148
7698,6,41151
7699,62,41367
7700,103,41382
7701,194,41436
7702,92,41580
7703,74,41718
7704,171,41841
7705,131,41887
7706,99,41975
7707,57,42122
7708,104,42136
7709,200,42147
7710,33,42240
7711,148,42271
7712,60,18256
7713,62,18296
7714,54,18306
7715,220,18322
7716,203,18328
7717,28,18330
7718,2,18332
7719,0,18379
7720,37,18394
7721,203,18397
7722,171,18456
7723,85,18465
7724,123,18469
7725,51,18477
7726,126,18479
7727,64,18485
7728,187,18509
7729,187,18537
7730,63,18543
7731,159,18552
7732,41,18607
7733,96,18609
7734,128,18617
7735,62,18643
7736,62,18649
7737,46,18654
7738,32,18668
7739,53,18682
7740,29,18716
7741,105,18729
7742,150,18737
7743,56,18765
7744,52,28639
7745,24,28652
7746,69,28658
7747,154,28667
7748,51,28682
7749,88,28684
7750,103,28688
7751,72,28689
7752,204,28702
7753,135,28703
7754,132,28714
7755,158,28717
7756,74,28720
7757,63,28723
7758,30,28724
7759,206,28727
7760,150,28729
7761,216,28731
7762,154,28737
7763,101,28741
7764,161,28747
7765,12,28750
7766,6,28755
7767,206,28757
7768,46,28759
7769,130,28774
7770,172,28775
7771,88,28778
7772,126,28779
7773,174,28789
7774,185,28791
7775,2,28794
7776,209,34796
7777,13,34800
7778,9,34827
7779,76,34838
7780,97,34911
7781,95,34935
7782,77,34942
7783,158,34956
7784,122,34967
7785,199,34998
7786,102,35006
7787,54,35016
7788,3,35019
7789,141,35021
7790,52,35029
7791,41,35030
7792,115,35042
7793,21,35060
7794,228,35077
7795,27,35094
7796,77,35095
7797,41,35096
7798,76,35104
7799,46,35118
7800,104,35142
7801,29,35144
7802,146,35147
7803,74,35154
7804,141,35160
7805,84,35164
7806,77,35173
7807,17,35175
7808,139,55009
7809,103,55011
7810,132,55012
7811,21,55013
7812,64,55020
7813,157,55028
7814,37,55029
7815,81,55030
7816,5,55031
7817,79,55033
7818,196,55036
7819,141,55037
7820,161,55039
7821,44,55040
7822,159,55044
7823,81,55047
7824,88,55048
7825,69,55049
7826,76,55050
7827,159,55055
7828,82,55060
7829,115,55067
7830,56,55076
7831,74,55077
7832,66,55082
7833,81,55085
7834,32,55087
7835,122,55088
7836,46,55089
7837,206,55090
7838,127,55091
7839,85,55093
7840,194,55637
7841,7,55638
7842,102,55640
7843,74,55642
7844,26,55643
7845,33,55645
7846,41,55651
7847,68,55655
7848,18,55663
7849,95,55670
7850,158,55671
7851,7,55675
7852,88,55677
7853,153,55681
7854,110,55683
7855,30,55684
7856,204,55690
7857,155,55691
7858,114,55701
7859,150,55702
7860,216,55704
7861,80,55705
7862,147,55707
7863,1,55708
7864,34,55709
7865,158,55712
7866,203,55715
7867,150,55718
7868,45,55721
7869,62,55722
7870,149,55725
7871,187,55732
7872,146,11034
7873,184,11073
7874,118,11104
7875,34,11178
7876,9,11249
7877,136,11546
7878,204,11547
7879,200,11646
7880,184,11690
7881,102,11703
7882,95,11722
7883,128,11735
7884,49,11748
7885,207,11815
7886,159,11829
7887,184,11834
7888,51,11842
7889,17,11877
7890,110,11881
7891,174,11902
7892,161,11970
7893,145,12139
7894,68,12208
7895,69,12390
7896,72,12511
7897,99,12517
7898,150,12518
7899,34,12528
7900,67,12529
7901,15,12580
7902,228,12611
7903,117,12990
7904,101,36897
7905,131,36958
7906,148,36963
7907,56,36966
7908,224,37024
7909,104,37031
7910,26,37101
7911,89,37117
7912,52,37121
7913,34,37136
7914,62,37146
7915,149,37165
7916,196,37171
7917,165,37243
7918,203,37310
7919,51,37626
7920,221,37641
7921,83,37678
7922,72,37765
7923,111,37815
7924,113,37945
7925,117,37993
7926,15,38075
7927,177,38169
7928,118,38452
7929,68,38996
7930,114,39173
7931,35,39179
7932,228,39454
7933,24,41080
7934,106,41250
7935,8,41263
7936,68,1829
7937,9,1839
7938,92,1872
7939,21,1876
7940,44,1879
7941,74,1885
7942,131,1887
7943,114,1889
7944,147,1921
7945,26,1932
7946,81,1949
7947,180,1952
7948,187,1989
7949,206,2032
7950,62,2067
7951,148,2070
7952,27,2079
7953,109,2085
7954,72,2087
7955,77,2116
7956,220,2140
7957,17,2185
7958,32,2251
7959,59,2257
7960,93,2300
7961,68,2332
7962,100,2336
7963,67,2387
7964,26,2390
7965,72,2453
7966,145,2477
7967,206,2497
7968,161,18799
7969,222,18802
7970,72,18813
7971,161,18814
7972,199,18824
7973,19,18825
7974,32,18827
7975,122,18829
7976,96,18830
7977,178,18851
7978,64,18862
7979,49,18864
7980,62,18869
7981,224,18871
7982,125,18876
7983,228,18889
7984,68,18895
7985,142,18899
7986,203,18910
7987,69,18913
7988,157,18936
7989,132,18953
7990,0,18960
7991,95,18965
7992,165,18969
7993,77,18977
7994,105,18983
7995,220,18990
7996,172,19000
7997,147,19005
7998,209,19007
7999,139,19011
8000,51,48352
8001,154,48356
8002,57,48359
8003,206,48361
8004,203,48365
8005,220,48397
8006,51,48398
8007,114,48402
8008,56,48406
8009,149,48416
8010,220,48426
8011,178,48439
8012,165,48444
8013,150,48449
8014,224,48456
8015,162,48466
8016,203,48479
8017,132,48481
8018,145,48493
8019,180,48496
8020,153,48498
8021,203,48522
8022,161,48526
8023,159,48539
8024,18,48540
8025,32,48556
8026,179,48561
8027,172,48590
8028,178,48594
8029,15,48602
8030,118,48636
8031,210,48638
8032,147,22280
8033,120,22284
8034,32,22288
8035,2,22291
8036,194,22299
8037,34,22309
8038,135,22319
8039,100,22322
8040,85,22323
8041,32,22333
8042,94,22340
8043,149,22366
8044,196,22376
8045,150,22393
8046,57,22399
8047,93,22402
8048,30,22408
8049,76,22420
8050,74,22427
8051,147,22444
8052,178,22451
8053,180,22466
8054,206,22480
8055,155,22481
8056,32,22482
8057,220,22489
8058,197,22494
8059,76,22495
8060,150,22497
8061,26,22502
8062,203,22516
8063,9,22517
8064,146,298
8065,108,327
8066,158,333
8067,42,350
8068,141,359
8069,153,432
8070,105,438
8071,172,456
8072,85,466
8073,46,472
8074,88,490
8075,46,493
8076,5,508
8077,203,517
8078,145,521
8079,9,523
8080,72,550
8081,130,554
8082,158,556
8083,9,579
8084,94,583
8085,68,585
8086,118,586
8087,115,588
8088,103,600
8089,10,631
8090,172,637
8091,132,642
8092,179,668
8093,5,675
8094,10,679
8095,105,685
8096,10,26739
8097,103,26752
8098,9,26755
8099,162,26756
8100,53,26764
8101,102,26766
8102,155,26768
8103,81,26785
8104,220,26786
8105,88,26792
8106,194,26808
8107,178,26809
8108,57,26813
8109,102,26822
8110,99,26830
8111,77,26834
8112,161,26836
8113,105,26837
8114,114,26845
8115,72,26850
8116,76,26858
8117,220,26862
8118,44,26865
8119,114,26866
8120,204,26870
8121,89,26875
8122,146,26876
8123,131,26885
8124,81,26887
8125,57,26894
8126,153,26896
8127,46,26897
8128,158,56036
8129,38,56037
8130,68,56043
8131,68,56044
8132,99,56051
8133,113,56057
8134,33,56063
8135,79,56064
8136,74,56066
8137,41,56070
8138,140,56073
8139,228,56074
8140,121,56080
8141,51,56088
8142,220,56089
8143,203,56090
8144,72,56091
8145,5,56095
8146,88,56099
8147,222,56101
8148,81,56104
8149,220,56105
8150,66,56113
8151,142,56115
8152,200,56120
8153,194,56126
8154,114,56133
8155,2,56134
8156,118,56136
8157,93,56143
8158,145,56145
8159,57,56147
8160,30,27111
8161,57,27117
8162,92,27119
8163,84,27124
8164,101,27129
8165,206,27132
8166,150,27133
8167,77,27134
8168,141,27137
8169,130,27142
8170,2,27146
8171,2,27147
8172,130,27151
8173,85,27164
8174,18,27169
8175,171,27171
8176,172,27175
8177,148,27177
8178,63,27179
8179,32,27183
8180,126,27184
8181,149,27185
8182,20,27186
8183,65,27187
8184,114,27193
8185,74,27194
8186,79,27199
8187,171,27200
8188,32,27207
8189,52,27221
8190,154,27223
8191,37,27224
8192,1,3979
8193,99,3980
8194,153,3996
8195,23,4006
8196,120,4009
8197,29,4038
8198,56,4055
8199,141,4061
8200,220,4070
8201,194,4082
8202,222,4086
8203,81,4094
8204,35,4123
8205,221,4143
8206,54,4164
8207,125,4170
8208,224,4175
8209,221,4236
8210,9,4275
8211,69,4276
8212,16,4280
8213,62,4283
8214,209,4299
8215,158,4324
8216,70,4327
8217,159,4359
8218,132,4369
8219,159,4383
8220,178,4394
8221,103,4401
8222,84,4412
8223,158,4437
8224,72,14159
8225,24,14162
8226,224,14164
8227,216,14166
8228,174,14186
8229,220,14214
8230,10,14215
8231,105,14231
8232,158,14233
8233,126,14235
8234,194,14244
8235,174,14245
8236,114,14258
8237,228,14272
8238,197,14289
8239,153,14318
8240,84,14357
8241,147,14360
8242,94,14368
8243,35,14373
8244,56,14392
8245,8,14403
8246,161,14414
8247,57,14418
8248,178,14422
8249,102,14449
8250,81,14478
8251,174,14497
8252,114,14508
8253,179,14512
8254,206,14518
8255,74,14530
8256,107,4698
8257,7,4700
8258,130,4701
8259,3,4724
8260,72,4749
8261,92,4753
8262,72,4768
8263,1,4770
8264,189,4778
8265,9,4792
8266,74,4803
8267,159,4824
8268,130,4849
8269,88,4856
8270,101,4869
8271,113,4874
8272,93,4898
8273,165,4913
8274,62,4914
8275,57,4927
8276,56,5055
8277,149,5069
8278,179,5119
8279,44,5169
8280,64,5192
8281,64,5203
8282,136,5209
8283,66,5211
8284,180,5216
8285,71,5242
8286,161,5243
8287,106,5256
8288,165,37668
8289,184,37671
8290,103,37675
8291,222,37676
8292,192,37677
8293,35,37682
8294,81,37693
8295,7,37694
8296,113,37695
8297,21,37696
8298,206,37698
8299,54,37699
8300,159,37702
8301,99,37709
8302,62,37711
8303,209,37715
8304,96,37718
8305,93,37723
8306,146,37726
8307,185,37727
8308,62,37729
8309,37,37731
8310,149,37737
8311,101,37738
8312,14,37741
8313,10,37742
8314,68,37745
8315,150,37748
8316,190,37753
8317,51,37769
8318,29,37775
8319,42,37785
8320,64,7756
8321,85,7757
8322,210,7762
8323,159,7764
8324,159,7769
8325,5,7782
8326,184,7800
8327,129,7801
8328,10,7806
8329,91,7813
8330,64,7837
8331,26,7840
8332,63,7845
8333,108,7847
8334,7,7856
8335,209,7860
8336,2,7862
8337,41,7869
8338,146,7871
8339,139,7893
8340,206,7898
8341,159,7899
8342,141,7922
8343,185,7931
8344,171,7943
8345,38,7951
8346,199,7955
8347,199,7962
8348,107,7971
8349,69,7976
8350,10,7981
8351,64,7986
8352,81,16495
8353,154,16512
8354,32,16522
8355,74,16557
8356,68,16607
8357,25,16610
8358,58,16619
8359,113,16633
8360,228,16675
8361,71,16681
8362,180,16688
8363,161,16702
8364,228,16728
8365,209,16730
8366,77,16736
8367,30,16750
8368,14,16761
8369,114,16776
8370,55,16786
8371,84,16797
8372,146,16800
8373,0,16801
8374,128,16828
8375,21,16847
8376,153,16871
8377,52,16897
8378,18,16908
8379,52,16915
8380,130,16930
8381,142,16933
8382,130,16996
8383,158,17017
8384,102,51836
8385,30,51874
8386,104,51887
8387,177,51892
8388,206,51894
8389,51,51927
8390,106,51928
8391,77,51944
8392,135,51946
8393,162,52009
8394,74,52075
8395,200,52112
8396,118,52126
8397,83,52140
8398,220,52206
8399,158,52222
8400,80,52223
8401,42,52267
8402,95,52309
8403,9,52351
8404,180,52361
8405,15,52402
8406,80,52421
8407,37,52422
8408,3,52430
8409,174,52457
8410,26,52462
8411,178,52480
8412,5,52498
8413,32,52527
8414,7,52552
8415,179,52564
8416,178,29090
8417,7,29091
8418,69,29094
8419,222,29096
8420,146,29097
8421,165,29099
8422,122,29100
8423,159,29102
8424,104,29111
8425,87,29115
8426,64,29118
8427,38,29119
8428,26,29134
8429,26,29142
8430,57,29145
8431,81,29148
8432,14,29155
8433,221,29164
8434,45,29166
8435,85,29177
8436,159,29180
8437,125,29184
8438,160,29189
8439,99,29195
8440,206,29198
8441,30,29208
8442,148,29213
8443,117,29215
8444,204,29217
8445,9,29232
8446,51,29241
8447,32,29242
8448,92,42309
8449,62,42310
8450,92,42311
8451,148,42314
8452,21,42329
8453,67,42330
8454,141,42345
8455,32,42355
8456,71,42361
8457,178,42369
8458,209,42370
8459,9,42377
8460,82,42390
8461,60,42395
8462,228,42411
8463,99,42412
8464,51,42422
8465,42,42425
8466,96,42431
8467,113,42444
8468,209,42450
8469,14,42457
8470,92,42469
8471,161,42477
8472,190,42491
8473,6,42501
8474,192,42507
8475,204,42511
8476,110,42542
8477,220,42543
8478,100,42548
8479,187,42549
8480,135,40622
8481,196,40631
8482,224,40637
8483,126,40639
8484,115,40643
8485,158,40648
8486,76,40653
8487,52,40658
