0,163
1,84
2,259
3,248
4,206
5,294
6,114
7,263
8,363
9,118
10,181
11,135
12,157
13,741
14,88
15,248
16,287
17,126
18,198
19,741
20,672
21,137
22,179
23,241
24,323
25,186
26,61
27,287
28,69
29,741
30,183
31,129
32,123
33,211
34,251
35,33
36,183
37,79
38,209
39,222
40,294
41,176
42,219
43,780
44,196
45,782
46,30
47,711
48,268
49,183
50,260
51,55
52,105
53,363
54,47
55,722
56,323
57,479
58,176
59,204
60,711
61,114
62,363
63,479
64,124
65,114
66,104
67,711
68,672
69,248
70,101
71,129
72,30
73,78
74,528
75,129
76,780
77,626
78,614
79,114
80,217
81,248
82,30
83,248
84,233
85,536
86,294
87,137
88,135
89,163
90,459
91,144
92,183
93,230
94,268
95,110
96,236
97,114
98,129
99,780
100,528
101,239
102,183
103,52
104,242
105,173
106,158
107,122
108,248
109,114
110,479
111,254
112,79
113,519
114,186
115,175
116,536
117,254
118,301
119,165
120,196
121,6
122,179
123,176
124,220
125,181
126,238
127,412
128,60
129,88
130,667
131,121
132,60
133,323
134,667
135,47
136,780
137,129
138,88
139,183
140,71
141,88
142,741
143,114
144,211
145,47
146,63
147,88
148,135
149,122
150,209
151,672
152,549
153,672
154,27
155,107
156,27
157,179
158,114
159,169
160,220
161,722
162,197
163,113
164,114
165,118
166,101
167,131
168,248
169,85
170,124
171,223
172,177
173,54
174,287
175,135
176,672
177,58
178,55
179,519
180,625
181,157
182,186
183,183
184,711
185,156
186,155
187,69
188,222
189,206
190,204
191,105
192,667
193,144
194,479
195,6
196,667
197,519
198,189
199,131
200,60
201,216
202,186
203,536
204,245
205,49
206,278
207,257
208,179
209,144
210,519
211,219
212,60
213,112
214,7
215,239
216,257
217,211
218,114
219,250
220,222
221,183
222,238
223,204
224,135
225,183
226,27
227,137
228,33
229,363
230,69
231,175
232,278
233,84
234,214
235,6
236,122
237,189
238,214
239,278
240,6
241,114
242,506
243,79
244,116
245,506
246,236
247,301
248,183
249,213
250,121
251,287
252,97
253,156
254,60
255,672
256,182
257,175
258,186
259,287
260,459
261,536
262,259
263,183
264,71
265,722
266,250
267,715
268,223
269,196
270,536
271,363
272,135
273,33
274,111
275,107
276,459
277,672
278,7
279,572
280,58
281,179
282,183
283,27
284,519
285,61
286,60
287,248
288,58
289,6
290,528
291,200
292,412
293,205
294,412
295,149
296,741
297,156
298,175
299,163
300,250
301,216
302,204
303,104
304,20
305,183
306,110
307,287
308,158
309,137
310,264
311,60
312,176
313,181
314,506
315,506
316,782
317,183
318,711
319,220
320,248
321,239
322,412
323,287
324,169
325,667
326,176
327,27
328,780
329,55
330,84
331,630
332,248
333,287
334,211
335,217
336,165
337,672
338,114
339,448
340,200
341,88
342,506
343,242
344,722
345,63
346,236
347,250
348,222
349,204
350,536
351,190
352,219
353,118
354,6
355,213
356,69
357,126
358,177
359,30
360,260
361,52
362,171
363,131
364,206
365,72
366,111
367,230
368,169
369,264
370,667
371,113
372,60
373,149
374,69
375,160
376,217
377,122
378,294
379,69
380,242
381,479
382,58
383,116
384,122
385,186
386,722
387,250
388,236
389,137
390,519
391,196
392,7
393,614
394,7
395,104
396,155
397,111
398,179
399,110
400,213
401,110
402,519
403,323
404,78
405,301
406,221
407,171
408,250
409,79
410,722
411,58
412,183
413,179
414,251
415,149
416,69
417,67
418,479
419,177
420,88
421,176
422,137
423,614
424,782
425,71
426,61
427,263
428,30
429,625
430,206
431,630
432,129
433,248
434,412
435,220
436,55
437,287
438,625
439,190
440,114
441,55
442,196
443,182
444,47
445,719
446,6
447,142
448,84
449,323
450,241
451,52
452,72
453,83
454,30
455,27
456,179
457,107
458,189
459,118
460,135
461,236
462,72
463,213
464,67
465,183
466,30
467,177
468,135
469,200
470,129
471,246
472,214
473,114
474,114
475,410
476,87
477,129
478,363
479,169
480,179
481,196
482,47
483,222
484,780
485,667
486,572
487,30
488,301
489,163
490,114
491,60
492,160
493,236
494,238
495,323
496,85
497,528
498,287
499,183
500,157
501,84
502,72
503,479
504,33
505,211
506,33
507,60
508,79
509,179
510,171
511,58
512,129
513,112
514,363
515,114
516,63
517,549
518,200
519,105
520,248
521,155
522,132
523,123
524,519
525,784
526,363
527,47
528,294
529,248
530,528
531,257
532,101
533,260
534,30
535,6
536,200
537,287
538,156
539,784
540,294
541,211
542,254
543,506
544,626
545,60
546,205
547,672
548,123
549,179
550,208
551,259
552,144
553,69
554,155
555,225
556,129
557,179
558,58
559,242
560,63
561,122
562,204
563,789
564,109
565,30
566,479
567,287
568,572
569,107
570,33
571,222
572,129
573,169
574,47
575,54
576,183
577,479
578,78
579,60
580,126
581,137
582,268
583,413
584,231
585,6
586,459
587,88
588,110
589,633
590,254
591,112
592,149
593,84
594,236
595,230
596,63
597,47
598,183
599,479
600,30
601,169
602,614
603,104
604,294
605,131
606,183
607,254
608,214
609,133
610,78
611,169
612,58
613,209
614,114
615,129
616,268
617,97
618,225
619,200
620,213
621,196
622,222
623,211
624,126
625,177
626,58
627,123
628,410
629,214
630,248
631,515
632,722
633,264
634,633
635,195
636,206
637,204
638,160
639,217
640,49
641,667
642,204
643,614
644,223
645,479
646,259
647,519
648,248
649,667
650,196
651,69
652,667
653,208
654,196
655,519
656,69
657,131
658,244
659,572
660,294
661,625
662,479
663,479
664,171
665,208
666,176
667,223
668,129
669,157
670,122
671,118
672,260
673,206
674,6
675,47
676,251
677,479
678,268
679,156
680,60
681,208
682,260
683,67
684,27
685,107
686,183
687,107
688,124
689,294
690,241
691,213
692,170
693,155
694,171
695,187
696,195
697,47
698,197
699,225
700,179
701,294
702,49
703,114
704,101
705,225
706,55
707,209
708,129
709,88
710,30
711,214
712,175
713,47
714,715
715,126
716,519
717,536
718,614
719,30
720,63
721,156
722,30
723,268
724,30
725,169
726,231
727,780
728,294
729,156
730,118
731,61
732,672
733,63
734,195
735,667
736,181
737,135
738,61
739,200
740,67
741,221
742,268
743,519
744,179
745,196
746,85
747,198
748,114
749,124
750,741
751,133
752,231
753,111
754,213
755,144
756,60
757,323
758,69
759,63
760,197
761,254
762,784
763,107
764,250
765,58
766,672
767,71
768,122
769,49
770,448
771,267
772,223
773,107
774,157
775,169
776,236
777,129
778,278
779,105
780,129
781,176
782,116
783,198
784,235
785,211
786,170
787,206
788,6
789,63
790,260
791,155
792,155
793,131
794,294
795,204
796,104
797,515
798,217
799,225
800,250
801,183
802,222
803,294
804,784
805,254
806,251
807,217
808,231
809,146
810,198
811,78
812,149
813,528
814,111
815,170
816,236
817,114
818,780
819,5
820,6
821,179
822,164
823,667
824,88
825,165
826,155
827,209
828,133
829,69
830,236
831,122
832,176
833,114
834,169
835,196
836,183
837,528
838,506
839,6
840,88
841,144
842,179
843,63
844,245
845,722
846,180
847,672
848,137
849,217
850,722
851,135
852,278
853,209
854,528
855,83
856,241
857,225
858,144
859,217
860,625
861,572
862,572
863,412
864,131
865,165
866,225
867,183
868,784
869,163
870,107
871,107
872,251
873,722
874,204
875,83
876,363
877,112
878,506
879,536
880,131
881,301
882,61
883,410
884,278
885,287
886,220
887,27
888,248
889,260
890,506
891,251
892,200
893,181
894,236
895,163
896,104
897,294
898,177
899,33
900,506
901,60
902,112
903,222
904,33
905,124
906,219
907,129
908,149
909,250
910,116
911,614
912,88
913,6
914,33
915,294
916,203
917,506
918,254
919,626
920,47
921,549
922,54
923,55
924,113
925,88
926,250
927,122
928,236
929,780
930,236
931,260
932,633
933,183
934,195
935,156
936,112
937,260
938,633
939,528
940,183
941,110
942,6
943,205
944,67
945,144
946,69
947,155
948,79
949,149
950,144
951,236
952,222
953,113
954,599
955,506
956,225
957,163
958,169
959,183
960,239
961,236
962,112
963,54
964,459
965,27
966,7
967,143
968,27
969,186
970,129
971,183
972,112
973,20
974,630
975,246
976,85
977,625
978,49
979,189
980,479
981,55
982,722
983,122
984,150
985,122
986,58
987,225
988,323
989,206
990,85
991,213
992,672
993,179
994,129
995,118
996,506
997,78
998,260
999,287
1000,69
1001,204
1002,223
1003,250
1004,195
1005,137
1006,60
1007,165
1008,186
1009,78
1010,175
1011,169
1012,69
1013,160
1014,225
1015,233
1016,195
1017,208
1018,722
1019,88
1020,225
1021,157
1022,6
1023,156
1024,236
1025,69
1026,6
1027,47
1028,196
1029,782
1030,156
1031,122
1032,741
1033,6
1034,241
1035,479
1036,294
1037,268
1038,222
1039,155
1040,85
1041,711
1042,217
1043,129
1044,195
1045,179
1046,105
1047,58
1048,171
1049,630
1050,536
1051,122
1052,233
1053,667
1054,27
1055,268
1056,268
1057,515
1058,200
1059,230
1060,250
1061,63
1062,183
1063,519
1064,79
1065,150
1066,448
1067,69
1068,60
1069,72
1070,233
1071,165
1072,163
1073,164
1074,614
1075,506
1076,143
1077,78
1078,84
1079,625
1080,58
1081,630
1082,189
1083,221
1084,242
1085,220
1086,245
1087,176
1088,109
1089,456
1090,163
1091,6
1092,7
1093,204
1094,129
1095,519
1096,294
1097,84
1098,79
1099,251
1100,233
1101,448
1102,131
1103,98
1104,363
1105,323
1106,209
1107,217
1108,181
1109,412
1110,107
1111,175
1112,6
1113,118
1114,225
1115,84
1116,519
1117,260
1118,60
1119,165
1120,257
1121,31
1122,196
1123,169
1124,61
1125,114
1126,625
1127,116
1128,43
1129,195
1130,479
1131,58
1132,142
1133,287
1134,268
1135,259
1136,479
1137,135
1138,519
1139,30
1140,60
1141,196
1142,7
1143,183
1144,456
1145,132
1146,287
1147,519
1148,287
1149,173
1150,142
1151,217
1152,155
1153,197
1154,672
1155,242
1156,27
1157,129
1158,179
1159,241
1160,197
1161,196
1162,6
1163,208
1164,211
1165,536
1166,118
1167,251
1168,614
1169,506
1170,204
1171,479
1172,113
1173,163
1174,667
1175,257
1176,230
1177,114
1178,30
1179,230
1180,110
1181,268
1182,630
1183,479
1184,132
1185,88
1186,60
1187,121
1188,633
1189,323
1190,163
1191,479
1192,711
1193,6
1194,183
1195,506
1196,157
1197,144
1198,235
1199,599
1200,58
1201,456
1202,506
1203,250
1204,156
1205,217
1206,171
1207,287
1208,195
1209,83
1210,211
1211,52
1212,163
1213,263
1214,189
1215,230
1216,71
1217,183
1218,259
1219,213
1220,287
1221,672
1222,33
1223,528
1224,784
1225,71
1226,52
1227,323
1228,160
1229,287
1230,30
1231,213
1232,47
1233,672
1234,363
1235,190
1236,135
1237,278
1238,233
1239,301
1240,263
1241,55
1242,626
1243,614
1244,105
1245,58
1246,30
1247,144
1248,287
1249,208
1250,135
1251,112
1252,47
1253,129
1254,163
1255,196
1256,287
1257,287
1258,633
1259,413
1260,204
1261,235
1262,630
1263,233
1264,107
1265,459
1266,294
1267,122
1268,144
1269,5
1270,156
1271,88
1272,189
1273,230
1274,179
1275,169
1276,536
1277,528
1278,236
1279,250
1280,549
1281,69
1282,87
1283,614
1284,71
1285,169
1286,784
1287,129
1288,219
1289,254
1290,780
1291,278
1292,88
1293,199
1294,183
1295,722
1296,204
1297,217
1298,506
1299,71
1300,248
1301,111
1302,741
1303,225
1304,47
1305,61
1306,211
1307,245
1308,84
1309,170
1310,83
1311,196
1312,248
1313,179
1314,250
1315,242
1316,183
1317,251
1318,241
1319,112
1320,6
1321,107
1322,231
1323,122
1324,71
1325,30
1326,179
1327,47
1328,219
1329,220
1330,412
1331,225
1332,131
1333,80
1334,519
1335,515
1336,711
1337,7
1338,131
1339,121
1340,177
1341,49
1342,142
1343,780
1344,257
1345,782
1346,69
1347,60
1348,672
1349,784
1350,67
1351,104
1352,107
1353,722
1354,28
1355,176
1356,204
1357,719
1358,211
1359,250
1360,157
1361,363
1362,268
1363,233
1364,413
1365,27
1366,235
1367,142
1368,626
1369,157
1370,626
1371,519
1372,104
1373,222
1374,169
1375,222
1376,189
1377,479
1378,625
1379,88
1380,112
1381,71
1382,257
1383,248
1384,104
1385,179
1386,780
1387,176
1388,124
1389,88
1390,55
1391,104
1392,114
1393,250
1394,88
1395,142
1396,278
1397,189
1398,7
1399,711
1400,79
1401,107
1402,27
1403,195
1404,203
1405,222
1406,630
1407,219
1408,30
1409,236
1410,630
1411,176
1412,222
1413,129
1414,129
1415,69
1416,114
1417,160
1418,248
1419,107
1420,179
1421,780
1422,257
1423,456
1424,135
1425,323
1426,287
1427,165
1428,200
1429,241
1430,506
1431,60
1432,519
1433,195
1434,182
1435,528
1436,105
1437,135
1438,448
1439,114
1440,235
1441,149
1442,220
1443,69
1444,135
1445,741
1446,572
1447,711
1448,672
1449,301
1450,122
1451,69
1452,672
1453,179
1454,110
1455,163
1456,171
1457,196
1458,195
1459,204
1460,176
1461,630
1462,278
1463,287
1464,169
1465,222
1466,6
1467,60
1468,165
1469,33
1470,69
1471,722
1472,181
1473,506
1474,248
1475,189
1476,27
1477,741
1478,625
1479,784
1480,27
1481,135
1482,479
1483,55
1484,236
1485,150
1486,60
1487,213
1488,241
1489,60
1490,711
1491,101
1492,142
1493,149
1494,175
1495,169
1496,195
1497,88
1498,241
1499,67
1500,135
1501,135
1502,203
1503,27
1504,268
1505,169
1506,122
1507,287
1508,195
1509,58
1510,124
1511,741
1512,287
1513,506
1514,209
1515,222
1516,165
1517,722
1518,479
1519,268
1520,131
1521,301
1522,104
1523,235
1524,260
1525,479
1526,672
1527,49
1528,88
1529,287
1530,135
1531,549
1532,323
1533,78
1534,287
1535,222
1536,83
1537,160
1538,30
1539,60
1540,715
1541,248
1542,189
1543,137
1544,104
1545,179
1546,220
1547,536
1548,69
1549,248
1550,6
1551,213
1552,741
1553,784
1554,129
1555,196
1556,132
1557,225
1558,287
1559,63
1560,363
1561,160
1562,163
1563,143
1564,235
1565,58
1566,197
1567,250
1568,711
1569,113
1570,711
1571,170
1572,230
1573,217
1574,259
1575,175
1576,54
1577,260
1578,780
1579,213
1580,784
1581,135
1582,209
1583,180
1584,109
1585,143
1586,135
1587,183
1588,412
1589,196
1590,214
1591,114
1592,129
1593,479
1594,113
1595,84
1596,71
1597,241
1598,197
1599,323
1600,88
1601,144
1602,479
1603,209
1604,230
1605,220
1606,163
1607,98
1608,528
1609,287
1610,257
1611,536
1612,135
1613,410
1614,248
1615,625
1616,213
1617,131
1618,260
1619,456
1620,715
1621,301
1622,84
1623,171
1624,104
1625,79
1626,121
1627,169
1628,113
1629,55
1630,248
1631,722
1632,33
1633,782
1634,528
1635,246
1636,287
1637,672
1638,60
1639,363
1640,196
1641,155
1642,78
1643,157
1644,257
1645,28
1646,741
1647,263
1648,179
1649,263
1650,109
1651,47
1652,180
1653,60
1654,264
1655,251
1656,52
1657,614
1658,122
1659,217
1660,209
1661,155
1662,47
1663,176
1664,7
1665,479
1666,72
1667,278
1668,211
1669,221
1670,105
1671,121
1672,165
1673,189
1674,144
1675,58
1676,268
1677,101
1678,515
1679,248
1680,132
1681,711
1682,225
1683,164
1684,715
1685,183
1686,214
1687,176
1688,118
1689,107
1690,219
1691,179
1692,287
1693,205
1694,150
1695,155
1696,118
1697,126
1698,528
1699,122
1700,667
1701,114
1702,264
1703,113
1704,301
1705,223
1706,105
1707,225
1708,129
1709,287
1710,208
1711,780
1712,213
1713,195
1714,633
1715,213
1716,214
1717,672
1718,149
1719,363
1720,126
1721,506
1722,209
1723,27
1724,122
1725,112
1726,294
1727,122
1728,626
1729,27
1730,71
1731,142
1732,186
1733,137
1734,69
1735,84
1736,479
1737,233
1738,6
1739,782
1740,155
1741,782
1742,519
1743,258
1744,711
1745,549
1746,230
1747,278
1748,157
1749,506
1750,741
1751,6
1752,84
1753,60
1754,221
1755,114
1756,30
1757,163
1758,109
1759,133
1760,113
1761,107
1762,572
1763,30
1764,245
1765,189
1766,633
1767,47
1768,135
1769,55
1770,135
1771,221
1772,267
1773,219
1774,135
1775,287
1776,239
1777,177
1778,549
1779,301
1780,67
1781,163
1782,183
1783,528
1784,150
1785,782
1786,137
1787,225
1788,58
1789,222
1790,506
1791,171
1792,122
1793,71
1794,219
1795,112
1796,189
1797,155
1798,137
1799,268
1800,122
1801,124
1802,287
1803,47
1804,181
1805,780
1806,156
1807,30
1808,144
1809,105
1810,183
1811,79
1812,114
1813,412
1814,155
1815,238
1816,780
1817,242
1818,137
1819,169
1820,88
1821,630
1822,230
1823,169
1824,412
1825,180
1826,323
1827,6
1828,88
1829,163
1830,157
1831,189
1832,179
1833,245
1834,245
1835,667
1836,220
1837,113
1838,107
1839,206
1840,186
1841,111
1842,410
1843,122
1844,268
1845,183
1846,116
1847,137
1848,479
1849,250
1850,49
1851,230
1852,268
1853,479
1854,225
1855,60
1856,122
1857,254
1858,176
1859,83
1860,129
1861,176
1862,715
1863,549
1864,129
1865,412
1866,85
1867,84
1868,177
1869,104
1870,163
1871,211
1872,519
1873,213
1874,176
1875,104
1876,179
1877,196
1878,479
1879,176
1880,214
1881,222
1882,301
1883,711
1884,6
1885,506
1886,287
1887,33
1888,165
1889,114
1890,782
1891,214
1892,163
1893,715
1894,196
1895,239
1896,122
1897,150
1898,438
1899,250
1900,169
1901,667
1902,479
1903,323
1904,54
1905,459
1906,113
1907,142
1908,195
1909,54
1910,54
1911,264
1912,88
1913,165
1914,217
1915,5
1916,60
1917,196
1918,459
1919,126
1920,287
1921,711
1922,155
1923,506
1924,71
1925,672
1926,412
1927,169
1928,459
1929,171
1930,165
1931,206
1932,722
1933,196
1934,69
1935,6
1936,118
1937,209
1938,211
1939,599
1940,625
1941,459
1942,260
1943,170
1944,214
1945,254
1946,58
1947,104
1948,294
1949,54
1950,225
1951,257
1952,121
1953,114
1954,129
1955,114
1956,519
1957,448
1958,105
1959,412
1960,112
1961,214
1962,149
1963,211
1964,259
1965,251
1966,549
1967,251
1968,323
1969,71
1970,143
1971,101
1972,267
1973,268
1974,258
1975,633
1976,121
1977,169
1978,216
1979,84
1980,157
1981,236
1982,479
1983,225
1984,195
1985,43
1986,60
1987,186
1988,60
1989,263
1990,264
1991,79
1992,30
1993,217
1994,60
1995,183
1996,190
1997,150
1998,179
1999,294
2000,268
2001,241
2002,248
2003,79
2004,60
2005,155
2006,197
2007,144
2008,410
2009,222
2010,69
2011,78
2012,741
2013,221
2014,241
2015,71
2016,479
2017,268
2018,268
2019,528
2020,230
2021,124
2022,149
2023,175
2024,267
2025,214
2026,448
2027,112
2028,630
2029,79
2030,112
2031,175
2032,189
2033,179
2034,528
2035,187
2036,179
2037,171
2038,47
2039,236
2040,294
2041,222
2042,104
2043,181
2044,784
2045,160
2046,208
2047,667
2048,49
2049,143
2050,519
2051,137
2052,241
2053,264
2054,88
2055,722
2056,208
2057,107
2058,208
2059,156
2060,222
2061,528
2062,242
2063,213
2064,163
2065,626
2066,129
2067,200
2068,633
2069,195
2070,287
2071,155
2072,225
2073,54
2074,189
2075,58
2076,722
2077,506
2078,131
2079,263
2080,30
2081,260
2082,410
2083,456
2084,722
2085,157
2086,149
2087,741
2088,206
2089,47
2090,61
2091,248
2092,782
2093,52
2094,71
2095,711
2096,30
2097,129
2098,160
2099,133
2100,84
2101,104
2102,208
2103,323
2104,197
2105,83
2106,217
2107,60
2108,209
2109,60
2110,519
2111,54
2112,257
2113,241
2114,780
2115,241
2116,614
2117,105
2118,251
2119,741
2120,129
2121,222
2122,179
2123,412
2124,133
2125,667
2126,183
2127,137
2128,205
2129,47
2130,149
2131,456
2132,71
2133,236
2134,217
2135,144
2136,614
2137,27
2138,519
2139,109
2140,179
2141,87
2142,131
2143,133
2144,722
2145,190
2146,448
2147,257
2148,114
2149,143
2150,84
2151,614
2152,71
2153,171
2154,129
2155,209
2156,186
2157,60
2158,667
2159,155
2160,214
2161,667
2162,27
2163,69
2164,176
2165,278
2166,614
2167,79
2168,111
2169,213
2170,135
2171,633
2172,209
2173,177
2174,214
2175,214
2176,135
2177,179
2178,122
2179,250
2180,456
2181,479
2182,58
2183,122
2184,410
2185,60
2186,164
2187,69
2188,69
2189,60
2190,230
2191,183
2192,110
2193,214
2194,137
2195,219
2196,217
2197,112
2198,101
2199,6
2200,214
2201,219
2202,27
2203,363
2204,459
2205,200
2206,410
2207,71
2208,213
2209,195
2210,204
2211,214
2212,197
2213,122
2214,177
2215,268
2216,60
2217,630
2218,213
2219,126
2220,614
2221,233
2222,213
2223,124
2224,179
2225,88
2226,626
2227,287
2228,363
2229,250
2230,784
2231,301
2232,101
2233,784
2234,479
2235,60
2236,219
2237,208
2238,47
2239,101
2240,294
2241,176
2242,177
2243,536
2244,323
2245,672
2246,104
2247,549
2248,410
2249,287
2250,30
2251,206
2252,294
2253,27
2254,211
2255,625
2256,175
2257,506
2258,519
2259,197
2260,176
2261,236
2262,633
2263,171
2264,263
2265,301
2266,220
2267,236
2268,163
2269,131
2270,149
2271,85
2272,549
2273,220
2274,150
2275,169
2276,245
2277,71
2278,30
2279,113
2280,33
2281,223
2282,135
2283,78
2284,268
2285,363
2286,222
2287,213
2288,780
2289,58
2290,104
2291,301
2292,27
2293,780
2294,52
2295,250
2296,784
2297,536
2298,155
2299,782
2300,114
2301,363
2302,60
2303,301
2304,58
2305,536
2306,528
2307,250
2308,67
2309,6
2310,63
2311,630
2312,189
2313,72
2314,47
2315,263
2316,71
2317,254
2318,248
2319,84
2320,60
2321,301
2322,149
2323,459
2324,287
2325,30
2326,27
2327,209
2328,236
2329,219
2330,177
2331,241
2332,222
2333,6
2334,287
2335,170
2336,149
2337,118
2338,254
2339,157
2340,235
2341,257
2342,67
2343,6
2344,248
2345,528
2346,158
2347,69
2348,69
2349,263
2350,163
2351,213
2352,47
2353,20
2354,225
2355,189
2356,230
2357,506
2358,72
2359,667
2360,209
2361,782
2362,170
2363,294
2364,572
2365,122
2366,54
2367,254
2368,157
2369,155
2370,183
2371,363
2372,248
2373,58
2374,195
2375,6
2376,625
2377,61
2378,214
2379,69
2380,60
2381,190
2382,287
2383,104
2384,711
2385,183
2386,135
2387,58
2388,722
2389,84
2390,257
2391,456
2392,197
2393,519
2394,182
2395,506
2396,104
2397,200
2398,58
2399,176
2400,626
2401,55
2402,222
2403,105
2404,186
2405,211
2406,157
2407,241
2408,259
2409,69
2410,143
2411,6
2412,260
2413,715
2414,230
2415,123
2416,63
2417,236
2418,165
2419,122
2420,219
2421,195
2422,287
2423,122
2424,323
2425,257
2426,142
2427,214
2428,31
2429,236
2430,113
2431,626
2432,47
2433,782
2434,132
2435,211
2436,287
2437,163
2438,248
2439,626
2440,363
2441,69
2442,135
2443,165
2444,363
2445,58
2446,149
2447,169
2448,672
2449,260
2450,135
2451,169
2452,248
2453,220
2454,105
2455,149
2456,63
2457,211
2458,263
2459,123
2460,614
2461,170
2462,267
2463,67
2464,47
2465,163
2466,208
2467,223
2468,163
2469,225
2470,214
2471,614
2472,179
2473,163
2474,549
2475,171
2476,614
2477,221
2478,118
2479,235
2480,479
2481,111
2482,722
2483,112
2484,301
2485,6
2486,101
2487,111
2488,155
2489,60
2490,519
2491,129
2492,129
2493,236
2494,60
2495,630
2496,101
2497,220
2498,217
2499,225
2500,6
2501,209
2502,114
2503,242
2504,456
2505,186
2506,479
2507,209
2508,85
2509,163
2510,183
2511,412
2512,84
2513,179
2514,599
2515,132
2516,144
2517,67
2518,30
2519,246
2520,209
2521,519
2522,459
2523,61
2524,131
2525,143
2526,176
2527,198
2528,242
2529,220
2530,88
2531,122
2532,132
2533,519
2534,67
2535,144
2536,217
2537,197
2538,181
2539,112
2540,84
2541,519
2542,71
2543,711
2544,214
2545,267
2546,250
2547,84
2548,6
2549,163
2550,260
2551,110
2552,263
2553,144
2554,84
2555,197
2556,87
2557,71
2558,132
2559,60
2560,204
2561,183
2562,223
2563,506
2564,27
2565,233
2566,179
2567,211
2568,135
2569,126
2570,113
2571,195
2572,186
2573,121
2574,183
2575,225
2576,263
2577,205
2578,711
2579,572
2580,301
2581,114
2582,479
2583,137
2584,137
2585,667
2586,231
2587,456
2588,219
2589,28
2590,79
2591,219
2592,250
2593,88
2594,58
2595,63
2596,204
2597,6
2598,171
2599,104
2600,171
2601,118
2602,506
2603,104
2604,278
2605,230
2606,278
2607,169
2608,112
2609,323
2610,186
2611,711
2612,28
2613,456
2614,195
2615,114
2616,72
2617,47
2618,113
2619,60
2620,30
2621,27
2622,98
2623,122
2624,220
2625,55
2626,667
2627,177
2628,250
2629,231
2630,186
2631,614
2632,225
2633,122
2634,784
2635,55
2636,112
2637,222
2638,236
2639,220
2640,118
2641,27
2642,109
2643,241
2644,157
2645,630
2646,157
2647,456
2648,144
2649,189
2650,448
2651,183
2652,126
2653,208
2654,112
2655,323
2656,506
2657,129
2658,278
2659,182
2660,179
2661,230
2662,780
2663,219
2664,572
2665,30
2666,7
2667,599
2668,278
2669,257
2670,27
2671,260
2672,231
2673,264
2674,155
2675,257
2676,225
2677,251
2678,126
2679,101
2680,54
2681,118
2682,268
2683,155
2684,211
2685,200
2686,195
2687,97
2688,61
2689,105
2690,58
2691,129
2692,183
2693,278
2694,181
2695,150
2696,287
2697,114
2698,179
2699,208
2700,231
2701,741
2702,67
2703,208
2704,114
2705,241
2706,163
2707,179
2708,222
2709,479
2710,614
2711,190
2712,27
2713,149
2714,183
2715,20
2716,6
2717,236
2718,722
2719,104
2720,200
2721,177
2722,260
2723,238
2724,137
2725,27
2726,169
2727,667
2728,101
2729,63
2730,85
2731,213
2732,179
2733,782
2734,85
2735,214
2736,412
2737,479
2738,208
2739,52
2740,155
2741,183
2742,719
2743,209
2744,236
2745,60
2746,6
2747,235
2748,179
2749,135
2750,175
2751,614
2752,156
2753,179
2754,122
2755,122
2756,30
2757,129
2758,49
2759,519
2760,196
2761,222
2762,176
2763,268
2764,248
2765,506
2766,206
2767,572
2768,323
2769,197
2770,155
2771,107
2772,183
2773,126
2774,246
2775,246
2776,225
2777,223
2778,169
2779,149
2780,158
2781,47
2782,722
2783,60
2784,169
2785,105
2786,208
2787,258
2788,149
2789,784
2790,58
2791,169
2792,132
2793,206
2794,211
2795,217
2796,186
2797,105
2798,549
2799,104
2800,189
2801,175
2802,672
2803,626
2804,782
2805,506
2806,156
2807,6
2808,248
2809,7
2810,6
2811,214
2812,118
2813,599
2814,209
2815,456
2816,158
2817,268
2818,211
2819,195
2820,60
2821,149
2822,216
2823,67
2824,129
2825,219
2826,133
2827,222
2828,630
2829,217
2830,142
2831,6
2832,126
2833,221
2834,250
2835,179
2836,118
2837,58
2838,176
2839,112
2840,211
2841,158
2842,183
2843,251
2844,323
2845,135
2846,149
2847,121
2848,52
2849,131
2850,287
2851,142
2852,135
2853,260
2854,30
2855,33
2856,456
2857,122
2858,124
2859,528
2860,519
2861,221
2862,118
2863,109
2864,672
2865,519
2866,121
2867,72
2868,235
2869,179
2870,195
2871,157
2872,157
2873,146
2874,195
2875,323
2876,195
2877,536
2878,142
2879,107
2880,129
2881,160
2882,122
2883,246
2884,239
2885,260
2886,506
2887,132
2888,672
2889,121
2890,85
2891,85
2892,107
2893,122
2894,179
2895,672
2896,287
2897,672
2898,173
2899,54
2900,363
2901,259
2902,133
2903,124
2904,599
2905,784
2906,52
2907,412
2908,672
2909,257
2910,711
2911,195
2912,323
2913,287
2914,506
2915,6
2916,60
2917,278
2918,58
2919,107
2920,71
2921,30
2922,287
2923,179
2924,722
2925,506
2926,186
2927,214
2928,170
2929,69
2930,97
2931,236
2932,30
2933,233
2934,287
2935,176
2936,236
2937,715
2938,630
2939,111
2940,195
2941,195
2942,294
2943,169
2944,55
2945,129
2946,107
2947,61
2948,60
2949,519
2950,784
2951,78
2952,614
2953,519
2954,225
2955,6
2956,137
2957,6
2958,144
2959,519
2960,225
2961,241
2962,118
2963,58
2964,741
2965,69
2966,225
2967,175
2968,214
2969,116
2970,30
2971,625
2972,204
2973,55
2974,254
2975,231
2976,258
2977,287
2978,54
2979,175
2980,257
2981,630
2982,169
2983,47
2984,221
2985,6
2986,71
2987,183
2988,101
2989,114
2990,780
2991,60
2992,633
2993,20
2994,144
2995,222
2996,241
2997,116
2998,196
2999,222
3000,69
3001,203
3002,105
3003,323
3004,209
3005,124
3006,129
3007,196
3008,183
3009,163
3010,149
3011,165
3012,248
3013,536
3014,107
3015,158
3016,206
3017,60
3018,157
3019,287
3020,219
3021,149
3022,88
3023,63
3024,301
3025,209
3026,223
3027,213
3028,163
3029,722
3030,129
3031,124
3032,208
3033,672
3034,137
3035,294
3036,780
3037,176
3038,220
3039,170
3040,413
3041,216
3042,506
3043,133
3044,209
3045,506
3046,129
3047,208
3048,107
3049,7
3050,625
3051,599
3052,204
3053,784
3054,165
3055,131
3056,614
3057,179
3058,52
3059,195
3060,195
3061,104
3062,257
3063,410
3064,506
3065,110
3066,144
3067,251
3068,124
3069,536
3070,278
3071,195
3072,614
3073,149
3074,175
3075,196
3076,196
3077,236
3078,204
3079,101
3080,268
3081,245
3082,114
3083,219
3084,479
3085,60
3086,149
3087,239
3088,196
3089,31
3090,250
3091,6
3092,171
3093,625
3094,241
3095,143
3096,20
3097,222
3098,118
3099,268
3100,213
3101,182
3102,179
3103,27
3104,27
3105,114
3106,149
3107,782
3108,222
3109,506
3110,363
3111,536
3112,169
3113,225
3114,169
3115,294
3116,104
3117,169
3118,6
3119,515
3120,84
3121,79
3122,200
3123,88
3124,222
3125,722
3126,196
3127,131
3128,27
3129,169
3130,209
3131,54
3132,129
3133,614
3134,287
3135,171
3136,146
3137,200
3138,780
3139,214
3140,135
3141,79
3142,254
3143,268
3144,47
3145,49
3146,121
3147,122
3148,410
3149,183
3150,177
3151,67
3152,268
3153,71
3154,156
3155,179
3156,118
3157,614
3158,67
3159,79
3160,741
3161,209
3162,69
3163,144
3164,257
3165,30
3166,27
3167,211
3168,114
3169,58
3170,211
3171,222
3172,116
3173,190
3174,287
3175,47
3176,784
3177,6
3178,27
3179,114
3180,142
3181,287
3182,222
3183,287
3184,235
3185,626
3186,236
3187,183
3188,614
3189,715
3190,784
3191,126
3192,209
3193,33
3194,250
3195,69
3196,124
3197,155
3198,49
3199,131
3200,157
3201,122
3202,113
3203,71
3204,242
3205,60
3206,459
3207,85
3208,163
3209,186
3210,479
3211,214
3212,196
3213,630
3214,85
3215,196
3216,107
3217,114
3218,176
3219,528
3220,264
3221,129
3222,169
3223,135
3224,287
3225,260
3226,242
3227,220
3228,196
3229,33
3230,124
3231,129
3232,179
3233,213
3234,122
3235,438
3236,142
3237,294
3238,667
3239,149
3240,287
3241,183
3242,225
3243,104
3244,203
3245,230
3246,118
3247,268
3248,267
3249,230
3250,722
3251,549
3252,254
3253,163
3254,107
3255,268
3256,711
3257,268
3258,6
3259,182
3260,225
3261,625
3262,412
3263,536
3264,104
3265,6
3266,294
3267,572
3268,189
3269,722
3270,238
3271,244
3272,536
3273,163
3274,156
3275,294
3276,67
3277,741
3278,157
3279,135
3280,112
3281,260
3282,225
3283,479
3284,287
3285,58
3286,97
3287,209
3288,47
3289,88
3290,176
3291,287
3292,179
3293,722
3294,181
3295,782
3296,519
3297,225
3298,245
3299,160
3300,165
3301,519
3302,780
3303,30
3304,239
3305,186
3306,88
3307,6
3308,54
3309,225
3310,200
3311,217
3312,163
3313,519
3314,412
3315,667
3316,107
3317,30
3318,268
3319,268
3320,20
3321,27
3322,122
3323,126
3324,6
3325,27
3326,180
3327,7
3328,131
3329,225
3330,60
3331,183
3332,213
3333,60
3334,88
3335,242
3336,122
3337,144
3338,528
3339,214
3340,250
3341,149
3342,186
3343,254
3344,208
3345,60
3346,132
3347,181
3348,528
3349,30
3350,52
3351,672
3352,216
3353,260
3354,741
3355,254
3356,179
3357,287
3358,410
3359,209
3360,28
3361,204
3362,83
3363,519
3364,780
3365,780
3366,626
3367,183
3368,195
3369,211
3370,268
3371,195
3372,438
3373,236
3374,20
3375,112
3376,204
3377,122
3378,260
3379,101
3380,667
3381,515
3382,715
3383,722
3384,287
3385,107
3386,189
3387,782
3388,672
3389,456
3390,197
3391,107
3392,549
3393,179
3394,479
3395,715
3396,122
3397,217
3398,180
3399,122
3400,549
3401,198
3402,236
3403,625
3404,33
3405,784
3406,259
3407,137
3408,27
3409,131
3410,122
3411,63
3412,170
3413,233
3414,780
3415,131
3416,129
3417,572
3418,263
3419,171
3420,71
3421,519
3422,52
3423,160
3424,195
3425,268
3426,183
3427,88
3428,69
3429,549
3430,176
3431,47
3432,189
3433,250
3434,549
3435,263
3436,722
3437,183
3438,251
3439,250
3440,28
3441,223
3442,250
3443,110
3444,715
3445,711
3446,231
3447,254
3448,528
3449,33
3450,287
3451,6
3452,287
3453,58
3454,323
3455,614
3456,323
3457,211
3458,49
3459,71
3460,129
3461,236
3462,121
3463,268
3464,30
3465,267
3466,27
3467,179
3468,519
3469,197
3470,294
3471,169
3472,221
3473,177
3474,506
3475,225
3476,105
3477,28
3478,118
3479,363
3480,47
3481,122
3482,195
3483,163
3484,157
3485,135
3486,60
3487,287
3488,60
3489,268
3490,506
3491,54
3492,506
3493,506
3494,506
3495,236
3496,572
3497,549
3498,711
3499,183
3500,287
3501,479
3502,67
3503,196
3504,63
3505,61
3506,124
3507,60
3508,268
3509,248
3510,61
3511,711
3512,58
3513,711
3514,110
3515,131
3516,195
3517,176
3518,179
3519,122
3520,479
3521,294
3522,78
3523,246
3524,71
3525,413
3526,182
3527,528
3528,97
3529,190
3530,55
3531,780
3532,183
3533,245
3534,58
3535,78
3536,104
3537,251
3538,572
3539,287
3540,27
3541,186
3542,163
3543,129
3544,118
3545,519
3546,183
3547,251
3548,133
3549,47
3550,782
3551,79
3552,250
3553,195
3554,220
3555,97
3556,257
3557,195
3558,479
3559,49
3560,264
3561,173
3562,84
3563,260
3564,114
3565,122
3566,200
3567,780
3568,149
3569,179
3570,258
3571,27
3572,206
3573,519
3574,259
3575,528
3576,149
3577,157
3578,84
3579,209
3580,20
3581,625
3582,122
3583,104
3584,294
3585,287
3586,157
3587,528
3588,741
3589,221
3590,104
3591,633
3592,27
3593,235
3594,55
3595,549
3596,301
3597,179
3598,122
3599,294
3600,72
3601,197
3602,214
3603,132
3604,780
3605,323
3606,231
3607,163
3608,260
3609,217
3610,211
3611,782
3612,157
3613,58
3614,216
3615,196
3616,183
3617,225
3618,54
3619,58
3620,63
3621,456
3622,287
3623,129
3624,6
3625,72
3626,572
3627,6
3628,211
3629,63
3630,69
3631,250
3632,250
3633,260
3634,60
3635,105
3636,722
3637,20
3638,287
3639,784
3640,112
3641,27
3642,30
3643,268
3644,157
3645,614
3646,179
3647,104
3648,179
3649,60
3650,263
3651,165
3652,158
3653,506
3654,236
3655,257
3656,158
3657,169
3658,667
3659,88
3660,412
3661,260
3662,163
3663,204
3664,173
3665,101
3666,84
3667,157
3668,169
3669,572
3670,506
3671,155
3672,479
3673,110
3674,67
3675,195
3676,60
3677,780
3678,101
3679,448
3680,69
3681,633
3682,248
3683,30
3684,294
3685,6
3686,519
3687,254
3688,60
3689,626
3690,113
3691,209
3692,55
3693,30
3694,143
3695,206
3696,28
3697,214
3698,183
3699,110
3700,183
3701,189
3702,519
3703,179
3704,287
3705,220
3706,633
3707,251
3708,107
3709,222
3710,107
3711,211
3712,239
3713,55
3714,112
3715,204
3716,519
3717,287
3718,135
3719,519
3720,528
3721,88
3722,456
3723,214
3724,479
3725,165
3726,179
3727,135
3728,211
3729,186
3730,63
3731,131
3732,30
3733,71
3734,722
3735,722
3736,198
3737,519
3738,250
3739,323
3740,104
3741,225
3742,171
3743,6
3744,672
3745,221
3746,171
3747,179
3748,206
3749,231
3750,157
3751,506
3752,149
3753,67
3754,536
3755,220
3756,183
3757,549
3758,6
3759,143
3760,47
3761,214
3762,58
3763,176
3764,200
3765,572
3766,225
3767,183
3768,287
3769,230
3770,519
3771,667
3772,722
3773,251
3774,220
3775,27
3776,630
3777,672
3778,198
3779,58
3780,85
3781,363
3782,63
3783,170
3784,251
3785,162
3786,129
3787,219
3788,626
3789,260
3790,63
3791,6
3792,214
3793,205
3794,126
3795,135
3796,84
3797,780
3798,129
3799,183
3800,112
3801,163
3802,63
3803,149
3804,515
3805,259
3806,246
3807,217
3808,54
3809,189
3810,179
3811,131
3812,294
3813,165
3814,179
3815,30
3816,118
3817,122
3818,58
3819,122
3820,205
3821,79
3822,169
3823,263
3824,177
3825,156
3826,233
3827,107
3828,30
3829,236
3830,144
3831,30
3832,667
3833,278
3834,217
3835,614
3836,114
3837,219
3838,111
3839,294
3840,63
3841,143
3842,614
3843,233
3844,549
3845,200
3846,363
3847,287
3848,107
3849,246
3850,287
3851,219
3852,101
3853,87
3854,78
3855,599
3856,60
3857,98
3858,287
3859,137
3860,58
3861,190
3862,323
3863,217
3864,183
3865,506
3866,144
3867,257
3868,135
3869,239
3870,287
3871,137
3872,30
3873,711
3874,519
3875,251
3876,722
3877,236
3878,267
3879,515
3880,278
3881,506
3882,633
3883,294
3884,479
3885,242
3886,121
3887,114
3888,67
3889,260
3890,549
3891,156
3892,163
3893,149
3894,163
3895,85
3896,114
3897,190
3898,211
3899,216
3900,230
3901,169
3902,124
3903,60
3904,572
3905,363
3906,160
3907,104
3908,129
3909,667
3910,30
3911,27
3912,287
3913,206
3914,782
3915,60
3916,250
3917,143
3918,257
3919,479
3920,72
3921,177
3922,60
3923,268
3924,506
3925,208
3926,137
3927,60
3928,60
3929,58
3930,47
3931,711
3932,268
3933,258
3934,30
3935,69
3936,163
3937,301
3938,61
3939,506
3940,114
3941,519
3942,129
3943,47
3944,438
3945,294
3946,150
3947,52
3948,208
3949,219
3950,27
3951,209
3952,142
3953,104
3954,179
3955,105
3956,30
3957,131
3958,72
3959,20
3960,133
3961,47
3962,741
3963,67
3964,58
3965,536
3966,160
3967,228
3968,363
3969,209
3970,101
3971,572
3972,118
3973,217
3974,479
3975,506
3976,214
3977,410
3978,251
3979,163
3980,236
3981,230
3982,183
3983,114
3984,250
3985,169
3986,572
3987,176
3988,129
3989,784
3990,52
3991,67
3992,78
3993,196
3994,220
3995,782
3996,363
3997,216
3998,181
3999,175
4000,114
4001,183
4002,230
4003,122
4004,165
4005,672
4006,626
4007,233
4008,160
4009,222
4010,71
4011,225
4012,129
4013,181
4014,7
4015,189
4016,112
4017,6
4018,157
4019,63
4020,27
4021,225
4022,114
4023,49
4024,162
4025,519
4026,160
4027,715
4028,251
4029,190
4030,129
4031,176
4032,219
4033,88
4034,176
4035,143
4036,667
4037,214
4038,209
4039,84
4040,183
4041,220
4042,200
4043,6
4044,186
4045,87
4046,114
4047,264
4048,129
4049,113
4050,294
4051,251
4052,213
4053,287
4054,33
4055,79
4056,183
4057,479
4058,630
4059,301
4060,132
4061,204
4062,111
4063,149
4064,137
4065,479
4066,107
4067,27
4068,129
4069,61
4070,213
4071,363
4072,479
4073,124
4074,230
4075,112
4076,633
4077,143
4078,197
4079,241
4080,236
4081,200
4082,165
4083,129
4084,126
4085,135
4086,230
4087,722
4088,782
4089,83
4090,105
4091,323
4092,179
4093,149
4094,323
4095,217
4096,155
4097,88
4098,189
4099,126
4100,121
4101,126
4102,104
4103,287
4104,630
4105,137
4106,614
4107,241
4108,259
4109,217
4110,27
4111,183
4112,176
4113,190
4114,456
4115,126
4116,225
4117,176
4118,124
4119,220
4120,572
4121,49
4122,186
4123,101
4124,58
4125,614
4126,114
4127,506
4128,116
4129,142
4130,287
4131,248
4132,122
4133,142
4134,183
4135,263
4136,278
4137,235
4138,143
4139,264
4140,197
4141,667
4142,163
4143,233
4144,519
4145,251
4146,213
4147,60
4148,250
4149,248
4150,186
4151,176
4152,323
4153,219
4154,363
4155,301
4156,142
4157,197
4158,190
4159,129
4160,506
4161,165
4162,211
4163,217
4164,323
4165,126
4166,110
4167,519
4168,69
4169,79
4170,28
4171,60
4172,183
4173,230
4174,47
4175,260
4176,142
4177,30
4178,87
4179,448
4180,88
4181,323
4182,519
4183,183
4184,183
4185,71
4186,137
4187,260
4188,268
4189,549
4190,113
4191,33
4192,47
4193,79
4194,221
4195,549
4196,105
4197,196
4198,80
4199,248
4200,667
4201,225
4202,47
4203,213
4204,135
4205,614
4206,250
4207,231
4208,121
4209,179
4210,179
4211,84
4212,129
4213,235
4214,181
4215,741
4216,149
4217,204
4218,52
4219,142
4220,47
4221,69
4222,107
4223,572
4224,248
4225,163
4226,456
4227,165
4228,155
4229,6
4230,149
4231,287
4232,181
4233,287
4234,254
4235,183
4236,214
4237,6
4238,230
4239,129
4240,225
4241,137
4242,112
4243,28
4244,180
4245,236
4246,625
4247,672
4248,448
4249,67
4250,784
4251,179
4252,267
4253,363
4254,20
4255,528
4256,722
4257,782
4258,186
4259,69
4260,135
4261,222
4262,171
4263,250
4264,187
4265,506
4266,278
4267,268
4268,169
4269,177
4270,88
4271,205
4272,245
4273,626
4274,165
4275,27
4276,111
4277,672
4278,58
4279,208
4280,196
4281,84
4282,267
4283,55
4284,58
4285,456
4286,225
4287,105
4288,54
4289,715
4290,614
4291,667
4292,254
4293,225
4294,52
4295,294
4296,200
4297,163
4298,6
4299,131
4300,267
4301,179
4302,219
4303,549
4304,222
4305,323
4306,104
4307,6
4308,294
4309,142
4310,626
4311,69
4312,268
4313,506
4314,268
4315,112
4316,182
4317,722
4318,150
4319,28
4320,173
4321,195
4322,211
4323,170
4324,131
4325,85
4326,722
4327,71
4328,287
4329,410
4330,149
4331,208
4332,60
4333,245
4334,222
4335,667
4336,667
4337,155
4338,301
4339,27
4340,248
4341,197
4342,27
4343,599
4344,248
4345,301
4346,190
4347,231
4348,287
4349,625
4350,711
4351,27
4352,528
4353,129
4354,67
4355,213
4356,111
4357,528
4358,181
4359,30
4360,69
4361,122
4362,614
4363,114
4364,156
4365,448
4366,163
4367,626
4368,33
4369,88
4370,111
4371,135
4372,519
4373,479
4374,630
4375,112
4376,189
4377,27
4378,242
4379,27
4380,176
4381,780
4382,536
4383,78
4384,614
4385,6
4386,250
4387,219
4388,519
4389,179
4390,6
4391,111
4392,58
4393,58
4394,186
4395,506
4396,189
4397,6
4398,323
4399,58
4400,97
4401,614
4402,30
4403,625
4404,97
4405,248
4406,58
4407,245
4408,195
4409,116
4410,211
4411,55
4412,27
4413,230
4414,219
4415,323
4416,6
4417,323
4418,456
4419,6
4420,254
4421,268
4422,135
4423,235
4424,183
4425,260
4426,205
4427,107
4428,248
4429,157
4430,60
4431,183
4432,155
4433,784
4434,225
4435,110
4436,71
4437,78
4438,142
4439,27
4440,248
4441,204
4442,52
4443,211
4444,137
4445,171
4446,242
4447,113
4448,251
4449,257
4450,208
4451,711
4452,278
4453,17
4454,181
4455,169
4456,506
4457,71
4458,536
4459,30
4460,183
4461,132
4462,84
4463,213
4464,248
4465,614
4466,137
4467,30
4468,101
4469,614
4470,519
4471,69
4472,132
4473,599
4474,30
4475,47
4476,722
4477,217
4478,49
4479,672
4480,294
4481,126
4482,667
4483,183
4484,196
4485,209
4486,204
4487,27
4488,287
4489,126
4490,230
4491,122
4492,171
4493,58
4494,169
4495,186
4496,122
4497,715
4498,209
4499,162
4500,236
4501,258
4502,248
4503,216
4504,214
4505,245
4506,222
4507,114
4508,267
4509,107
4510,7
4511,195
4512,69
4513,519
4514,52
4515,251
4516,242
4517,528
4518,131
4519,630
4520,528
4521,88
4522,183
4523,30
4524,572
4525,214
4526,6
4527,301
4528,114
4529,236
4530,183
4531,58
4532,143
4533,109
4534,246
4535,183
4536,58
4537,222
4538,58
4539,363
4540,222
4541,135
4542,52
4543,780
4544,254
4545,114
4546,183
4547,214
4548,250
4549,722
4550,216
4551,169
4552,633
4553,412
4554,170
4555,217
4556,506
4557,515
4558,169
4559,27
4560,259
4561,157
4562,155
4563,572
4564,183
4565,169
4566,519
4567,27
4568,27
4569,58
4570,197
4571,294
4572,209
4573,6
4574,196
4575,20
4576,20
4577,55
4578,208
4579,135
4580,667
4581,204
4582,27
4583,33
4584,519
4585,198
4586,179
4587,412
4588,259
4589,222
4590,155
4591,287
4592,69
4593,101
4594,157
4595,160
4596,186
4597,177
4598,241
4599,131
4600,506
4601,114
4602,459
4603,784
4604,135
4605,614
4606,122
4607,179
4608,112
4609,246
4610,149
4611,6
4612,741
4613,614
4614,254
4615,179
4616,257
4617,83
4618,85
4619,206
4620,114
4621,114
4622,287
4623,278
4624,235
4625,294
4626,250
4627,287
4628,251
4629,294
4630,163
4631,88
4632,506
4633,54
4634,176
4635,506
4636,294
4637,260
4638,667
4639,179
4640,114
4641,183
4642,122
4643,113
4644,268
4645,198
4646,87
4647,135
4648,625
4649,263
4650,78
4651,225
4652,260
4653,536
4654,239
4655,179
4656,633
4657,219
4658,176
4659,162
4660,30
4661,114
4662,169
4663,189
4664,214
4665,225
4666,287
4667,251
4668,195
4669,363
4670,6
4671,250
4672,287
4673,412
4674,183
4675,519
4676,225
4677,111
4678,107
4679,163
4680,214
4681,211
4682,69
4683,205
4684,198
4685,165
4686,323
4687,213
4688,208
4689,711
4690,110
4691,208
4692,171
4693,6
4694,124
4695,149
4696,715
4697,177
4698,179
4699,213
4700,157
4701,33
4702,107
4703,208
4704,118
4705,236
4706,515
4707,572
4708,231
4709,248
4710,209
4711,176
4712,131
4713,179
4714,254
4715,43
4716,268
4717,84
4718,236
4719,625
4720,233
4721,54
4722,195
4723,107
4724,267
4725,122
4726,294
4727,169
4728,175
4729,780
4730,506
4731,211
4732,363
4733,60
4734,672
4735,118
4736,155
4737,722
4738,52
4739,107
4740,633
4741,72
4742,248
4743,211
4744,186
4745,625
4746,219
4747,782
4748,79
4749,208
4750,121
4751,287
4752,519
4753,221
4754,177
4755,204
4756,149
4757,49
4758,614
4759,260
4760,225
4761,143
4762,55
4763,58
4764,88
4765,6
4766,61
4767,155
4768,238
4769,110
4770,506
4771,287
4772,157
4773,129
4774,241
4775,506
4776,129
4777,105
4778,363
4779,180
4780,114
4781,287
4782,410
4783,155
4784,183
4785,6
4786,363
4787,104
4788,6
4789,6
4790,260
4791,83
4792,144
4793,6
4794,195
4795,30
4796,30
4797,30
4798,630
4799,519
4800,137
4801,236
4802,536
4803,69
4804,245
4805,129
4806,536
4807,124
4808,241
4809,155
4810,780
4811,667
4812,88
4813,672
4814,33
4815,599
4816,177
4817,599
4818,33
4819,47
4820,143
4821,27
4822,479
4823,118
4824,107
4825,6
4826,165
4827,104
4828,27
4829,122
4830,219
4831,711
4832,47
4833,200
4834,287
4835,137
4836,254
4837,219
4838,363
4839,536
4840,294
4841,137
4842,263
4843,169
4844,49
4845,784
4846,28
4847,287
4848,536
4849,183
4850,30
4851,519
4852,479
4853,58
4854,6
4855,47
4856,195
4857,236
4858,131
4859,105
4860,169
4861,104
4862,225
4863,112
4864,459
4865,183
4866,323
4867,248
4868,30
4869,160
4870,448
4871,7
4872,67
4873,506
4874,123
4875,235
4876,294
4877,6
4878,236
4879,209
4880,175
4881,84
4882,235
4883,179
4884,88
4885,667
4886,88
4887,169
4888,459
4889,79
4890,43
4891,156
4892,116
4893,233
4894,149
4895,209
4896,630
4897,122
4898,122
4899,209
4900,198
4901,176
4902,241
4903,157
4904,780
4905,260
4906,63
4907,248
4908,214
4909,633
4910,625
4911,294
4912,549
4913,105
4914,60
4915,268
4916,715
4917,196
4918,164
4919,129
4920,47
4921,233
4922,780
4923,264
4924,67
4925,176
4926,143
4927,206
4928,88
4929,144
4930,183
4931,626
4932,47
4933,27
4934,123
4935,722
4936,182
4937,30
4938,479
4939,506
4940,129
4941,177
4942,27
4943,155
4944,20
4945,58
4946,363
4947,180
4948,158
4949,217
4950,71
4951,133
4952,5
4953,515
4954,165
4955,780
4956,150
4957,197
4958,124
4959,195
4960,528
4961,519
4962,528
4963,137
4964,630
4965,209
4966,217
4967,519
4968,294
4969,129
4970,52
4971,30
4972,27
4973,30
4974,114
4975,122
4976,78
4977,254
4978,250
4979,248
4980,219
4981,536
4982,179
4983,54
4984,169
4985,209
4986,156
4987,183
4988,27
4989,198
4990,52
4991,287
4992,169
4993,260
4994,248
4995,183
4996,195
4997,250
4998,287
4999,169
5000,204
5001,33
5002,506
5003,129
5004,122
5005,112
5006,459
5007,183
5008,363
5009,196
5010,144
5011,104
5012,784
5013,52
5014,129
5015,47
5016,528
5017,250
5018,614
5019,179
5020,163
5021,549
5022,104
5023,69
5024,219
5025,225
5026,107
5027,6
5028,142
5029,55
5030,711
5031,84
5032,630
5033,156
5034,410
5035,87
5036,84
5037,780
5038,528
5039,78
5040,131
5041,111
5042,196
5043,114
5044,413
5045,177
5046,17
5047,83
5048,216
5049,6
5050,208
5051,225
5052,625
5053,118
5054,519
5055,55
5056,528
5057,112
5058,363
5059,294
5060,113
5061,30
5062,626
5063,30
5064,206
5065,7
5066,222
5067,626
5068,410
5069,114
5070,47
5071,131
5072,88
5073,69
5074,536
5075,189
5076,225
5077,179
5078,363
5079,88
5080,528
5081,179
5082,79
5083,71
5084,79
5085,213
5086,780
5087,155
5088,633
5089,63
5090,200
5091,135
5092,112
5093,780
5094,412
5095,189
5096,183
5097,259
5098,165
5099,180
5100,163
5101,572
5102,67
5103,528
5104,231
5105,110
5106,479
5107,719
5108,741
5109,60
5110,219
5111,171
5112,456
5113,157
5114,197
5115,58
5116,27
5117,204
5118,129
5119,112
5120,236
5121,149
5122,182
5123,177
5124,519
5125,55
5126,235
5127,456
5128,163
5129,55
5130,214
5131,236
5132,129
5133,186
5134,208
5135,155
5136,142
5137,144
5138,30
5139,715
5140,55
5141,160
5142,189
5143,69
5144,169
5145,287
5146,219
5147,236
5148,132
5149,195
5150,142
5151,245
5152,179
5153,88
5154,250
5155,222
5156,143
5157,114
5158,225
5159,183
5160,118
5161,63
5162,204
5163,179
5164,58
5165,129
5166,135
5167,129
5168,672
5169,251
5170,30
5171,323
5172,129
5173,52
5174,204
5175,142
5176,204
5177,323
5178,47
5179,149
5180,54
5181,263
5182,264
5183,250
5184,195
5185,246
5186,506
5187,105
5188,47
5189,30
5190,519
5191,71
5192,225
5193,722
5194,88
5195,85
5196,114
5197,268
5198,55
5199,124
5200,667
5201,633
5202,71
5203,6
5204,213
5205,211
5206,71
5207,143
5208,156
5209,149
5210,107
5211,780
5212,479
5213,268
5214,122
5215,190
5216,109
5217,235
5218,780
5219,216
5220,114
5221,122
5222,72
5223,196
5224,287
5225,263
5226,220
5227,479
5228,183
5229,114
5230,101
5231,479
5232,231
5233,519
5234,28
5235,58
5236,175
5237,69
5238,479
5239,7
5240,287
5241,257
5242,220
5243,672
5244,135
5245,363
5246,196
5247,183
5248,6
5249,69
5250,155
5251,479
5252,248
5253,58
5254,287
5255,222
5256,149
5257,225
5258,177
5259,182
5260,209
5261,479
5262,149
5263,52
5264,63
5265,278
5266,101
5267,67
5268,198
5269,169
5270,211
5271,183
5272,60
5273,142
5274,78
5275,667
5276,27
5277,413
5278,112
5279,230
5280,235
5281,196
5282,254
5283,206
5284,175
5285,214
5286,236
5287,49
5288,135
5289,105
5290,528
5291,78
5292,124
5293,33
5294,111
5295,614
5296,528
5297,301
5298,195
5299,250
5300,47
5301,614
5302,33
5303,412
5304,287
5305,110
5306,183
5307,186
5308,572
5309,225
5310,722
5311,60
5312,124
5313,163
5314,155
5315,506
5316,287
5317,189
5318,230
5319,63
5320,209
5321,189
5322,129
5323,78
5324,54
5325,209
5326,257
5327,236
5328,7
5329,294
5330,129
5331,456
5332,251
5333,30
5334,171
5335,47
5336,363
5337,479
5338,186
5339,196
5340,246
5341,189
5342,5
5343,278
5344,572
5345,6
5346,260
5347,27
5348,630
5349,633
5350,189
5351,479
5352,33
5353,722
5354,479
5355,254
5356,667
5357,248
5358,722
5359,84
5360,173
5361,479
5362,410
5363,84
5364,156
5365,183
5366,179
5367,412
5368,33
5369,176
5370,323
5371,165
5372,129
5373,301
5374,287
5375,479
5376,163
5377,107
5378,60
5379,111
5380,251
5381,287
5382,260
5383,780
5384,122
5385,515
5386,144
5387,176
5388,190
5389,171
5390,60
5391,722
5392,30
5393,105
5394,784
5395,294
5396,323
5397,189
5398,183
5399,157
5400,88
5401,257
5402,157
5403,177
5404,69
5405,78
5406,519
5407,105
5408,287
5409,131
5410,169
5411,301
5412,171
5413,204
5414,111
5415,219
5416,122
5417,124
5418,246
5419,78
5420,213
5421,204
5422,113
5423,515
5424,363
5425,287
5426,101
5427,6
5428,257
5429,52
5430,135
5431,71
5432,30
5433,63
5434,79
5435,135
5436,54
5437,71
5438,47
5439,88
5440,179
5441,163
5442,67
5443,248
5444,30
5445,278
5446,55
5447,667
5448,630
5449,204
5450,156
5451,55
5452,72
5453,519
5454,160
5455,784
5456,78
5457,30
5458,197
5459,196
5460,246
5461,221
5462,137
5463,479
5464,231
5465,260
5466,715
5467,61
5468,60
5469,88
5470,149
5471,47
5472,55
5473,183
5474,124
5475,294
5476,63
5477,132
5478,107
5479,124
5480,251
5481,197
5482,268
5483,259
5484,222
5485,79
5486,625
5487,219
5488,216
5489,195
5490,175
5491,142
5492,301
5493,268
5494,195
5495,267
5496,294
5497,135
5498,220
5499,213
5500,214
5501,412
5502,69
5503,223
5504,248
5505,104
5506,208
5507,83
5508,196
5509,47
5510,176
5511,83
5512,7
5513,6
5514,198
5515,667
5516,175
5517,176
5518,236
5519,222
5520,186
5521,625
5522,260
5523,144
5524,630
5525,183
5526,143
5527,413
5528,506
5529,259
5530,52
5531,780
5532,58
5533,268
5534,30
5535,205
5536,287
5537,614
5538,287
5539,672
5540,294
5541,169
5542,126
5543,245
5544,206
5545,209
5546,782
5547,301
5548,129
5549,69
5550,58
5551,63
5552,722
5553,231
5554,214
5555,208
5556,223
5557,245
5558,208
5559,195
5560,230
5561,6
5562,209
5563,69
5564,111
5565,248
5566,231
5567,123
5568,479
5569,219
5570,263
5571,197
5572,69
5573,63
5574,667
5575,175
5576,31
5577,250
5578,519
5579,780
5580,135
5581,572
5582,199
5583,519
5584,55
5585,780
5586,123
5587,33
5588,114
5589,363
5590,203
5591,183
5592,176
5593,479
5594,67
5595,250
5596,722
5597,198
5598,179
5599,27
5600,112
5601,179
5602,101
5603,149
5604,60
5605,137
5606,549
5607,5
5608,515
5609,301
5610,217
5611,142
5612,323
5613,230
5614,248
5615,118
5616,599
5617,287
5618,782
5619,67
5620,143
5621,200
5622,205
5623,536
5624,719
5625,506
5626,142
5627,214
5628,287
5629,264
5630,58
5631,142
5632,156
5633,149
5634,506
5635,217
5636,206
5637,528
5638,301
5639,186
5640,260
5641,183
5642,205
5643,175
5644,222
5645,572
5646,614
5647,85
5648,715
5649,58
5650,171
5651,104
5652,519
5653,107
5654,204
5655,200
5656,109
5657,60
5658,122
5659,248
5660,27
5661,63
5662,121
5663,61
5664,216
5665,105
5666,177
5667,250
5668,114
5669,667
5670,169
5671,506
5672,179
5673,163
5674,27
5675,104
5676,189
5677,5
5678,268
5679,169
5680,204
5681,479
5682,528
5683,104
5684,204
5685,219
5686,129
5687,220
5688,33
5689,672
5690,536
5691,183
5692,186
5693,88
5694,784
5695,132
5696,33
5697,101
5698,142
5699,235
5700,784
5701,410
5702,183
5703,142
5704,711
5705,30
5706,260
5707,171
5708,204
5709,204
5710,133
5711,519
5712,204
5713,672
5714,101
5715,217
5716,163
5717,124
5718,198
5719,236
5720,47
5721,233
5722,209
5723,67
5724,630
5725,206
5726,169
5727,672
5728,47
5729,47
5730,780
5731,268
5732,143
5733,169
5734,55
5735,182
5736,519
5737,183
5738,118
5739,160
5740,614
5741,181
5742,715
5743,142
5744,27
5745,741
5746,225
5747,506
5748,248
5749,294
5750,181
5751,186
5752,230
5753,157
5754,782
5755,182
5756,129
5757,287
5758,784
5759,116
5760,71
5761,213
5762,63
5763,181
5764,614
5765,219
5766,171
5767,221
5768,625
5769,204
5770,410
5771,177
5772,111
5773,363
5774,179
5775,33
5776,528
5777,111
5778,549
5779,157
5780,196
5781,301
5782,122
5783,30
5784,149
5785,79
5786,27
5787,47
5788,260
5789,204
5790,104
5791,30
5792,222
5793,33
5794,63
5795,107
5796,104
5797,211
5798,143
5799,54
5800,782
5801,179
5802,137
5803,614
5804,133
5805,129
5806,175
5807,105
5808,294
5809,107
5810,250
5811,60
5812,667
5813,132
5814,614
5815,233
5816,60
5817,519
5818,122
5819,60
5820,169
5821,169
5822,633
5823,220
5824,135
5825,6
5826,213
5827,58
5828,196
5829,363
5830,213
5831,114
5832,208
5833,122
5834,126
5835,107
5836,43
5837,88
5838,222
5839,58
5840,107
5841,225
5842,479
5843,6
5844,189
5845,219
5846,27
5847,782
5848,149
5849,204
5850,626
5851,63
5852,177
5853,625
5854,112
5855,722
5856,124
5857,84
5858,179
5859,220
5860,6
5861,49
5862,52
5863,528
5864,195
5865,200
5866,156
5867,33
5868,225
5869,118
5870,7
5871,122
5872,259
5873,177
5874,60
5875,213
5876,667
5877,186
5878,209
5879,711
5880,213
5881,47
5882,30
5883,105
5884,114
5885,111
5886,52
5887,176
5888,69
5889,6
5890,169
5891,254
5892,323
5893,163
5894,211
5895,71
5896,260
5897,225
5898,251
5899,196
5900,264
5901,55
5902,30
5903,528
5904,711
5905,113
5906,264
5907,220
5908,69
5909,155
5910,181
5911,245
5912,6
5913,233
5914,268
5915,58
5916,6
5917,248
5918,79
5919,47
5920,204
5921,236
5922,155
5923,782
5924,28
5925,149
5926,84
5927,220
5928,47
5929,157
5930,625
5931,479
5932,169
5933,549
5934,412
5935,251
5936,85
5937,149
5938,456
5939,60
5940,179
5941,217
5942,113
5943,118
5944,222
5945,239
5946,257
5947,47
5948,176
5949,176
5950,667
5951,196
5952,176
5953,323
5954,129
5955,213
5956,30
5957,784
5958,515
5959,157
5960,60
5961,133
5962,323
5963,251
5964,54
5965,183
5966,722
5967,124
5968,248
5969,47
5970,104
5971,6
5972,179
5973,519
5974,250
5975,177
5976,363
5977,142
5978,55
5979,222
5980,123
5981,71
5982,528
5983,104
5984,213
5985,88
5986,251
5987,63
5988,122
5989,459
5990,107
5991,124
5992,519
5993,230
5994,219
5995,241
5996,241
5997,213
5998,230
5999,195
6000,479
6001,217
6002,114
6003,137
6004,58
6005,572
6006,30
6007,176
6008,242
6009,241
6010,515
6011,79
6012,301
6013,363
6014,667
6015,30
6016,222
6017,294
6018,30
6019,49
6020,206
6021,599
6022,122
6023,47
6024,204
6025,625
6026,114
6027,223
6028,7
6029,183
6030,268
6031,110
6032,214
6033,33
6034,60
6035,363
6036,323
6037,189
6038,121
6039,254
6040,633
6041,245
6042,63
6043,711
6044,206
6045,245
6046,231
6047,114
6048,49
6049,479
6050,251
6051,171
6052,137
6053,160
6054,175
6055,323
6056,301
6057,528
6058,363
6059,209
6060,123
6061,58
6062,58
6063,169
6064,85
6065,6
6066,204
6067,780
6068,251
6069,112
6070,6
6071,114
6072,667
6073,80
6074,287
6075,220
6076,189
6077,183
6078,110
6079,214
6080,251
6081,236
6082,83
6083,222
6084,183
6085,112
6086,722
6087,528
6088,114
6089,155
6090,155
6091,225
6092,722
6093,163
6094,195
6095,301
6096,114
6097,173
6098,142
6099,33
6100,246
6101,625
6102,158
6103,448
6104,171
6105,549
6106,263
6107,122
6108,248
6109,126
6110,47
6111,263
6112,78
6113,189
6114,60
6115,155
6116,206
6117,58
6118,741
6119,250
6120,129
6121,58
6122,217
6123,528
6124,58
6125,123
6126,204
6127,246
6128,78
6129,169
6130,626
6131,196
6132,711
6133,784
6134,61
6135,104
6136,260
6137,209
6138,711
6139,129
6140,27
6141,506
6142,137
6143,52
6144,33
6145,784
6146,248
6147,236
6148,177
6149,110
6150,104
6151,479
6152,448
6153,626
6154,784
6155,246
6156,165
6157,63
6158,107
6159,183
6160,129
6161,110
6162,179
6163,114
6164,515
6165,528
6166,60
6167,6
6168,715
6169,438
6170,672
6171,221
6172,160
6173,137
6174,225
6175,47
6176,519
6177,506
6178,186
6179,294
6180,186
6181,63
6182,198
6183,267
6184,528
6185,104
6186,519
6187,135
6188,196
6189,456
6190,142
6191,206
6192,287
6193,122
6194,83
6195,137
6196,104
6197,633
6198,780
6199,88
6200,208
6201,131
6202,630
6203,97
6204,169
6205,58
6206,179
6207,55
6208,238
6209,169
6210,54
6211,438
6212,135
6213,112
6214,213
6215,195
6216,20
6217,171
6218,221
6219,211
6220,179
6221,61
6222,169
6223,250
6224,63
6225,47
6226,251
6227,519
6228,169
6229,715
6230,287
6231,208
6232,625
6233,479
6234,410
6235,667
6236,625
6237,248
6238,163
6239,626
6240,179
6241,129
6242,715
6243,118
6244,260
6245,112
6246,58
6247,6
6248,236
6249,135
6250,163
6251,259
6252,163
6253,254
6254,122
6255,84
6256,135
6257,149
6258,6
6259,267
6260,118
6261,54
6262,251
6263,107
6264,88
6265,163
6266,230
6267,287
6268,85
6269,204
6270,630
6271,268
6272,173
6273,146
6274,225
6275,250
6276,225
6277,63
6278,157
6279,672
6280,165
6281,80
6282,780
6283,47
6284,479
6285,209
6286,71
6287,155
6288,506
6289,515
6290,459
6291,179
6292,6
6293,144
6294,250
6295,519
6296,179
6297,104
6298,225
6299,88
6300,107
6301,104
6302,287
6303,260
6304,195
6305,254
6306,413
6307,248
6308,160
6309,135
6310,363
6311,222
6312,214
6313,214
6314,363
6315,722
6316,200
6317,157
6318,60
6319,129
6320,263
6321,722
6322,169
6323,61
6324,667
6325,144
6326,123
6327,71
6328,672
6329,58
6330,112
6331,667
6332,52
6333,301
6334,287
6335,260
6336,223
6337,294
6338,667
6339,294
6340,179
6341,208
6342,176
6343,479
6344,122
6345,412
6346,264
6347,294
6348,150
6349,222
6350,536
6351,208
6352,213
6353,122
6354,722
6355,7
6356,31
6357,169
6358,71
6359,633
6360,528
6361,58
6362,225
6363,88
6364,250
6365,294
6366,248
6367,55
6368,519
6369,213
6370,217
6371,7
6372,294
6373,220
6374,264
6375,6
6376,245
6377,287
6378,181
6379,780
6380,58
6381,112
6382,142
6383,248
6384,160
6385,257
6386,506
6387,223
6388,183
6389,47
6390,176
6391,30
6392,519
6393,536
6394,112
6395,506
6396,129
6397,72
6398,711
6399,176
6400,287
6401,248
6402,225
6403,363
6404,784
6405,118
6406,27
6407,163
6408,784
6409,84
6410,150
6411,287
6412,176
6413,189
6414,236
6415,506
6416,213
6417,131
6418,84
6419,225
6420,179
6421,536
6422,479
6423,165
6424,506
6425,572
6426,69
6427,287
6428,614
6429,30
6430,251
6431,287
6432,254
6433,171
6434,220
6435,158
6436,267
6437,363
6438,213
6439,448
6440,33
6441,78
6442,78
6443,107
6444,121
6445,179
6446,133
6447,667
6448,260
6449,113
6450,27
6451,549
6452,235
6453,67
6454,33
6455,225
6456,149
6457,131
6458,6
6459,413
6460,479
6461,155
6462,84
6463,294
6464,27
6465,626
6466,60
6467,129
6468,217
6469,116
6470,149
6471,114
6472,211
6473,549
6474,233
6475,33
6476,129
6477,245
6478,784
6479,164
6480,160
6481,122
6482,114
6483,515
6484,113
6485,110
6486,741
6487,239
6488,88
6489,221
6490,741
6491,72
6492,163
6493,412
6494,186
6495,179
6496,536
6497,143
6498,28
6499,60
6500,88
6501,519
6502,126
6503,69
6504,156
6505,251
6506,7
6507,67
6508,107
6509,49
6510,784
6511,782
6512,211
6513,135
6514,60
6515,88
6516,250
6517,110
6518,142
6519,209
6520,98
6521,515
6522,287
6523,626
6524,287
6525,236
6526,206
6527,412
6528,137
6529,58
6530,85
6531,614
6532,225
6533,47
6534,190
6535,741
6536,179
6537,741
6538,156
6539,519
6540,169
6541,225
6542,114
6543,179
6544,528
6545,163
6546,519
6547,63
6548,196
6549,58
6550,780
6551,251
6552,223
6553,169
6554,204
6555,195
6556,231
6557,213
6558,6
6559,27
6560,157
6561,63
6562,230
6563,222
6564,195
6565,155
6566,6
6567,225
6568,170
6569,122
6570,142
6571,630
6572,209
6573,287
6574,250
6575,412
6576,250
6577,572
6578,149
6579,133
6580,142
6581,27
6582,135
6583,28
6584,211
6585,625
6586,479
6587,294
6588,169
6589,363
6590,479
6591,30
6592,6
6593,176
6594,250
6595,126
6596,20
6597,61
6598,47
6599,63
6600,250
6601,549
6602,55
6603,264
6604,126
6605,250
6606,189
6607,142
6608,323
6609,206
6610,118
6611,55
6612,137
6613,245
6614,230
6615,60
6616,244
6617,195
6618,625
6619,515
6620,131
6621,58
6622,301
6623,479
6624,131
6625,85
6626,200
6627,260
6628,47
6629,248
6630,6
6631,104
6632,88
6633,222
6634,101
6635,6
6636,158
6637,60
6638,105
6639,519
6640,177
6641,49
6642,667
6643,301
6644,149
6645,213
6646,241
6647,179
6648,47
6649,163
6650,163
6651,88
6652,479
6653,200
6654,211
6655,238
6656,722
6657,214
6658,250
6659,85
6660,301
6661,245
6662,183
6663,69
6664,784
6665,248
6666,217
6667,206
6668,88
6669,118
6670,60
6671,208
6672,217
6673,104
6674,176
6675,196
6676,157
6677,549
6678,182
6679,179
6680,217
6681,63
6682,110
6683,225
6684,177
6685,131
6686,47
6687,182
6688,667
6689,448
6690,177
6691,711
6692,87
6693,260
6694,211
6695,165
6696,248
6697,189
6698,170
6699,114
6700,47
6701,111
6702,410
6703,67
6704,131
6705,101
6706,225
6707,30
6708,84
6709,251
6710,221
6711,536
6712,213
6713,448
6714,236
6715,630
6716,248
6717,214
6718,780
6719,667
6720,236
6721,209
6722,741
6723,6
6724,47
6725,27
6726,107
6727,536
6728,719
6729,135
6730,519
6731,79
6732,137
6733,150
6734,126
6735,114
6736,519
6737,6
6738,122
6739,206
6740,149
6741,55
6742,97
6743,30
6744,196
6745,149
6746,107
6747,219
6748,84
6749,519
6750,67
6751,107
6752,30
6753,79
6754,146
6755,672
6756,225
6757,165
6758,111
6759,479
6760,222
6761,132
6762,190
6763,156
6764,79
6765,183
6766,630
6767,294
6768,107
6769,160
6770,27
6771,410
6772,58
6773,114
6774,122
6775,519
6776,448
6777,132
6778,107
6779,27
6780,33
6781,121
6782,625
6783,222
6784,183
6785,287
6786,107
6787,122
6788,6
6789,49
6790,189
6791,149
6792,195
6793,268
6794,47
6795,268
6796,248
6797,176
6798,27
6799,572
6800,287
6801,88
6802,214
6803,6
6804,47
6805,213
6806,116
6807,169
6808,260
6809,672
6810,672
6811,528
6812,260
6813,67
6814,109
6815,155
6816,60
6817,88
6818,216
6819,267
6820,156
6821,47
6822,519
6823,72
6824,163
6825,113
6826,572
6827,171
6828,27
6829,231
6830,69
6831,667
6832,55
6833,63
6834,181
6835,225
6836,209
6837,225
6838,231
6839,630
6840,248
6841,179
6842,27
6843,741
6844,216
6845,245
6846,254
6847,169
6848,204
6849,225
6850,132
6851,515
6852,572
6853,155
6854,722
6855,222
6856,164
6857,711
6858,667
6859,209
6860,217
6861,301
6862,323
6863,84
6864,626
6865,220
6866,221
6867,630
6868,179
6869,97
6870,149
6871,519
6872,264
6873,301
6874,71
6875,131
6876,250
6877,719
6878,626
6879,176
6880,131
6881,528
6882,625
6883,459
6884,150
6885,47
6886,225
6887,711
6888,519
6889,203
6890,149
6891,217
6892,179
6893,189
6894,204
6895,217
6896,260
6897,30
6898,667
6899,254
6900,135
6901,107
6902,132
6903,107
6904,205
6905,479
6906,113
6907,456
6908,235
6909,235
6910,122
6911,614
6912,135
6913,784
6914,67
6915,30
6916,58
6917,179
6918,630
6919,456
6920,30
6921,88
6922,214
6923,208
6924,626
6925,114
6926,715
6927,30
6928,142
6929,129
6930,88
6931,214
6932,260
6933,135
6934,169
6935,177
6936,209
6937,625
6938,506
6939,323
6940,55
6941,132
6942,630
6943,214
6944,479
6945,236
6946,195
6947,245
6948,672
6949,248
6950,49
6951,633
6952,122
6953,410
6954,225
6955,169
6956,203
6957,667
6958,208
6959,251
6960,231
6961,667
6962,216
6963,633
6964,223
6965,231
6966,30
6967,200
6968,213
6969,30
6970,63
6971,528
6972,60
6973,58
6974,722
6975,211
6976,200
6977,195
6978,157
6979,506
6980,410
6981,177
6982,780
6983,200
6984,131
6985,287
6986,197
6987,225
6988,741
6989,177
6990,630
6991,135
6992,84
6993,711
6994,780
6995,209
6996,630
6997,536
6998,135
6999,363
7000,133
7001,448
7002,549
7003,515
7004,181
7005,189
7006,780
7007,235
7008,6
7009,177
7010,204
7011,165
7012,208
7013,183
7014,239
7015,181
7016,129
7017,294
7018,630
7019,179
7020,71
7021,69
7022,135
7023,179
7024,131
7025,519
7026,30
7027,131
7028,171
7029,782
7030,630
7031,209
7032,6
7033,630
7034,633
7035,84
7036,536
7037,197
7038,211
7039,179
7040,259
7041,236
7042,239
7043,287
7044,78
7045,715
7046,536
7047,122
7048,323
7049,84
7050,528
7051,69
7052,220
7053,625
7054,667
7055,235
7056,257
7057,479
7058,6
7059,155
7060,6
7061,572
7062,6
7063,630
7064,506
7065,55
7066,479
7067,195
7068,114
7069,142
7070,287
7071,169
7072,107
7073,572
7074,722
7075,164
7076,5
7077,363
7078,722
7079,239
7080,301
7081,105
7082,61
7083,667
7084,633
7085,107
7086,129
7087,177
7088,410
7089,715
7090,410
7091,27
7092,323
7093,506
7094,614
7095,122
7096,572
7097,171
7098,54
7099,47
7100,248
7101,667
7102,301
7103,784
7104,124
7105,121
7106,536
7107,169
7108,196
7109,47
7110,626
7111,105
7112,179
7113,268
7114,287
7115,133
7116,101
7117,209
7118,479
7119,129
7120,260
7121,69
7122,287
7123,30
7124,169
7125,301
7126,122
7127,114
7128,179
7129,208
7130,363
7131,506
7132,6
7133,27
7134,211
7135,667
7136,85
7137,182
7138,47
7139,536
7140,183
7141,268
7142,223
7143,179
7144,58
7145,448
7146,114
7147,268
7148,214
7149,124
7150,672
7151,104
7152,301
7153,58
7154,107
7155,144
7156,630
7157,160
7158,6
7159,27
7160,214
7161,88
7162,287
7163,782
7164,213
7165,104
7166,54
7167,287
7168,287
7169,220
7170,528
7171,149
7172,30
7173,169
7174,206
7175,251
7176,101
7177,214
7178,630
7179,278
7180,163
7181,225
7182,69
7183,238
7184,189
7185,287
7186,47
7187,60
7188,479
7189,672
7190,195
7191,129
7192,782
7193,123
7194,208
7195,157
7196,572
7197,287
7198,142
7199,244
7200,126
7201,156
7202,60
7203,123
7204,129
7205,142
7206,248
7207,78
7208,169
7209,79
7210,214
7211,672
7212,268
7213,54
7214,155
7215,323
7216,137
7217,129
7218,131
7219,58
7220,222
7221,20
7222,479
7223,506
7224,110
7225,135
7226,245
7227,135
7228,27
7229,157
7230,225
7231,104
7232,30
7233,131
7234,88
7235,301
7236,183
7237,63
7238,98
7239,181
7240,88
7241,722
7242,225
7243,54
7244,251
7245,30
7246,248
7247,84
7248,30
7249,165
7250,169
7251,142
7252,58
7253,30
7254,84
7255,626
7256,711
7257,183
7258,135
7259,156
7260,122
7261,225
7262,614
7263,131
7264,233
7265,63
7266,122
7267,221
7268,363
7269,69
7270,6
7271,60
7272,47
7273,528
7274,7
7275,122
7276,220
7277,448
7278,88
7279,780
7280,204
7281,301
7282,189
7283,55
7284,572
7285,626
7286,219
7287,251
7288,58
7289,456
7290,250
7291,7
7292,528
7293,85
7294,196
7295,129
7296,181
7297,200
7298,197
7299,6
7300,88
7301,165
7302,208
7303,160
7304,197
7305,122
7306,104
7307,208
7308,129
7309,251
7310,225
7311,131
7312,519
7313,667
7314,176
7315,113
7316,156
7317,131
7318,287
7319,248
7320,278
7321,156
7322,163
7323,142
7324,157
7325,131
7326,60
7327,156
7328,169
7329,260
7330,54
7331,129
7332,223
7333,171
7334,60
7335,133
7336,122
7337,236
7338,114
7339,118
7340,58
7341,250
7342,719
7343,183
7344,101
7345,142
7346,126
7347,287
7348,209
7349,131
7350,156
7351,722
7352,208
7353,214
7354,67
7355,122
7356,780
7357,156
7358,189
7359,83
7360,179
7361,479
7362,124
7363,722
7364,196
7365,58
7366,69
7367,536
7368,236
7369,135
7370,179
7371,456
7372,246
7373,155
7374,260
7375,722
7376,238
7377,33
7378,149
7379,60
7380,200
7381,217
7382,294
7383,190
7384,197
7385,208
7386,208
7387,626
7388,208
7389,479
7390,54
7391,287
7392,101
7393,123
7394,132
7395,112
7396,131
7397,104
7398,69
7399,177
7400,112
7401,60
7402,198
7403,784
7404,58
7405,5
7406,214
7407,549
7408,200
7409,176
7410,219
7411,183
7412,667
7413,84
7414,6
7415,230
7416,189
7417,157
7418,30
7419,287
7420,672
7421,171
7422,144
7423,179
7424,135
7425,6
7426,131
7427,626
7428,63
7429,231
7430,67
7431,198
7432,69
7433,287
7434,137
7435,412
7436,123
7437,260
7438,410
7439,181
7440,27
7441,614
7442,222
7443,572
7444,599
7445,104
7446,131
7447,246
7448,179
7449,217
7450,219
7451,87
7452,363
7453,667
7454,211
7455,248
7456,144
7457,107
7458,186
7459,131
7460,323
7461,114
7462,287
7463,163
7464,69
7465,112
7466,223
7467,214
7468,236
7469,614
7470,260
7471,131
7472,789
7473,170
7474,177
7475,165
7476,287
7477,209
7478,213
7479,123
7480,149
7481,241
7482,163
7483,17
7484,199
7485,196
7486,85
7487,144
7488,131
7489,198
7490,175
7491,519
7492,257
7493,248
7494,126
7495,250
7496,259
7497,244
7498,236
7499,124
7500,189
7501,131
7502,179
7503,60
7504,784
7505,438
7506,722
7507,222
7508,60
7509,214
7510,214
7511,131
7512,58
7513,52
7514,239
7515,157
7516,208
7517,741
7518,177
7519,175
7520,176
7521,171
7522,219
7523,205
7524,672
7525,528
7526,169
7527,121
7528,633
7529,105
7530,630
7531,205
7532,528
7533,60
7534,80
7535,163
7536,27
7537,183
7538,241
7539,287
7540,107
7541,150
7542,448
7543,287
7544,287
7545,109
7546,177
7547,146
7548,175
7549,116
7550,137
7551,438
7552,672
7553,61
7554,60
7555,61
7556,104
7557,549
7558,72
7559,217
7560,323
7561,519
7562,105
7563,506
7564,782
7565,129
7566,170
7567,780
7568,27
7569,54
7570,301
7571,208
7572,236
7573,43
7574,196
7575,206
7576,181
7577,144
7578,213
7579,7
7580,49
7581,6
7582,124
7583,209
7584,196
7585,225
7586,250
7587,323
7588,506
7589,626
7590,254
7591,30
7592,88
7593,233
7594,84
7595,124
7596,278
7597,58
7598,126
7599,231
7600,55
7601,112
7602,248
7603,88
7604,278
7605,722
7606,235
7607,519
7608,27
7609,183
7610,113
7611,58
7612,206
7613,257
7614,479
7615,323
7616,111
7617,126
7618,83
7619,122
7620,6
7621,722
7622,6
7623,142
7624,248
7625,105
7626,264
7627,79
7628,223
7629,30
7630,195
7631,114
7632,250
7633,782
7634,223
7635,780
7636,133
7637,149
7638,122
7639,144
7640,213
7641,203
7642,287
7643,536
7644,722
7645,163
7646,111
7647,118
7648,216
7649,195
7650,196
7651,107
7652,114
7653,60
7654,169
7655,722
7656,111
7657,101
7658,71
7659,149
7660,114
7661,250
7662,209
7663,278
7664,182
7665,143
7666,160
7667,156
7668,107
7669,113
7670,67
7671,241
7672,222
7673,88
7674,179
7675,137
7676,163
7677,217
7678,122
7679,135
7680,55
7681,301
7682,135
7683,179
7684,711
7685,88
7686,572
7687,216
7688,142
7689,186
7690,208
7691,156
7692,209
7693,132
7694,129
7695,84
7696,114
7697,672
7698,722
7699,248
7700,49
7701,84
7702,287
7703,135
7704,169
7705,626
7706,176
7707,208
7708,209
7709,144
7710,715
7711,142
7712,195
7713,741
7714,63
7715,549
7716,179
7717,150
7718,203
7719,47
7720,250
7721,614
7722,183
7723,209
7724,88
7725,47
7726,118
7727,30
7728,55
7729,112
7730,239
7731,88
7732,204
7733,242
7734,195
7735,264
7736,69
7737,85
7738,633
7739,105
7740,209
7741,6
7742,176
7743,528
7744,630
7745,33
7746,85
7747,410
7748,572
7749,219
7750,114
7751,135
7752,58
7753,54
7754,171
7755,711
7756,107
7757,209
7758,301
7759,169
7760,79
7761,672
7762,410
7763,741
7764,323
7765,479
7766,519
7767,129
7768,506
7769,506
7770,169
7771,171
7772,129
7773,294
7774,412
7775,780
7776,741
7777,177
7778,515
7779,572
7780,230
7781,123
7782,784
7783,179
7784,250
7785,6
7786,7
7787,49
7788,169
7789,214
7790,214
7791,27
7792,250
7793,58
7794,214
7795,633
7796,287
7797,105
7798,479
7799,67
7800,124
7801,54
7802,363
7803,260
7804,196
7805,88
7806,150
7807,251
7808,257
7809,63
7810,254
7811,549
7812,47
7813,236
7814,506
7815,33
7816,176
7817,121
7818,220
7819,183
7820,536
7821,83
7822,6
7823,183
7824,259
7825,241
7826,630
7827,459
7828,614
7829,236
7830,536
7831,242
7832,47
7833,88
7834,222
7835,217
7836,287
7837,131
7838,135
7839,61
7840,268
7841,506
7842,323
7843,142
7844,741
7845,78
7846,170
7847,711
7848,6
7849,30
7850,113
7851,165
7852,519
7853,196
7854,124
7855,219
7856,263
7857,144
7858,6
7859,506
7860,112
7861,625
7862,189
7863,60
7864,363
7865,246
7866,479
7867,79
7868,195
7869,268
7870,181
7871,287
7872,110
7873,28
7874,60
7875,250
7876,129
7877,259
7878,260
7879,515
7880,479
7881,204
7882,105
7883,195
7884,412
7885,222
7886,220
7887,209
7888,122
7889,131
7890,519
7891,189
7892,27
7893,156
7894,142
7895,784
7896,413
7897,214
7898,122
7899,105
7900,131
7901,183
7902,175
7903,142
7904,211
7905,323
7906,205
7907,722
7908,107
7909,626
7910,448
7911,113
7912,254
7913,58
7914,515
7915,55
7916,60
7917,122
7918,223
7919,479
7920,133
7921,287
7922,257
7923,107
7924,410
7925,114
7926,479
7927,549
7928,412
7929,31
7930,6
7931,479
7932,195
7933,214
7934,163
7935,79
7936,782
7937,169
7938,176
7939,67
7940,137
7941,149
7942,260
7943,260
7944,236
7945,711
7946,626
7947,131
7948,259
7949,206
7950,780
7951,208
7952,107
7953,257
7954,572
7955,196
7956,30
7957,129
7958,179
7959,176
7960,363
7961,206
7962,133
7963,58
7964,83
7965,47
7966,107
7967,196
7968,287
7969,118
7970,131
7971,7
7972,109
7973,200
7974,221
7975,61
7976,204
7977,181
7978,287
7979,515
7980,171
7981,122
7982,60
7983,213
7984,221
7985,186
7986,156
7987,71
7988,528
7989,6
7990,203
7991,72
7992,214
7993,6
7994,61
7995,203
7996,412
7997,6
7998,63
7999,97
8000,58
8001,572
8002,225
8003,163
8004,175
8005,126
8006,260
8007,780
8008,169
8009,206
8010,78
8011,268
8012,245
8013,126
8014,479
8015,190
8016,479
8017,109
8018,209
8019,112
8020,137
8021,58
8022,27
8023,157
8024,49
8025,230
8026,171
8027,254
8028,122
8029,84
8030,614
8031,69
8032,722
8033,217
8034,112
8035,144
8036,177
8037,241
8038,667
8039,110
8040,122
8041,69
8042,549
8043,213
8044,169
8045,78
8046,107
8047,780
8048,235
8049,169
8050,176
8051,30
8052,20
8053,71
8054,165
8055,260
8056,122
8057,67
8058,5
8059,183
8060,363
8061,33
8062,169
8063,163
8064,222
8065,189
8066,264
8067,479
8068,176
8069,235
8070,301
8071,144
8072,122
8073,179
8074,625
8075,222
8076,287
8077,268
8078,278
8079,149
8080,506
8081,456
8082,61
8083,88
8084,131
8085,78
8086,260
8087,85
8088,219
8089,506
8090,55
8091,323
8092,251
8093,186
8094,157
8095,239
8096,181
8097,78
8098,257
8099,60
8100,131
8101,71
8102,323
8103,572
8104,213
8105,6
8106,248
8107,263
8108,363
8109,267
8110,198
8111,264
8112,195
8113,519
8114,515
8115,268
8116,236
8117,30
8118,614
8119,109
8120,85
8121,114
8122,129
8123,149
8124,28
8125,633
8126,88
8127,165
8128,63
8129,160
8130,30
8131,515
8132,58
8133,61
8134,233
8135,412
8136,196
8137,222
8138,20
8139,200
8140,222
8141,176
8142,323
8143,107
8144,165
8145,55
8146,179
8147,163
8148,479
8149,241
8150,6
8151,219
8152,54
8153,549
8154,69
8155,614
8156,58
8157,711
8158,187
8159,238
8160,519
8161,177
8162,156
8163,83
8164,124
8165,160
8166,217
8167,225
8168,114
8169,236
8170,287
8171,112
8172,363
8173,630
8174,268
8175,195
8176,214
8177,137
8178,60
8179,197
8180,225
8181,780
8182,122
8183,156
8184,214
8185,52
8186,6
8187,206
8188,294
8189,156
8190,630
8191,58
8192,113
8193,58
8194,169
8195,177
8196,113
8197,238
8198,84
8199,782
8200,323
8201,30
8202,667
8203,156
8204,131
8205,189
8206,149
8207,519
8208,114
8209,225
8210,219
8211,630
8212,225
8213,143
8214,109
8215,49
8216,88
8217,181
8218,69
8219,177
8220,135
8221,412
8222,780
8223,268
8224,626
8225,88
8226,63
8227,217
8228,105
8229,137
8230,630
8231,784
8232,105
8233,104
8234,206
8235,211
8236,122
8237,667
8238,519
8239,722
8240,506
8241,208
8242,165
8243,230
8244,150
8245,118
8246,667
8247,242
8248,515
8249,506
8250,506
8251,672
8252,479
8253,122
8254,122
8255,169
8256,126
8257,84
8258,27
8259,323
8260,208
8261,528
8262,214
8263,88
8264,195
8265,264
8266,6
8267,630
8268,163
8269,248
8270,250
8271,672
8272,506
8273,211
8274,223
8275,780
8276,722
8277,672
8278,250
8279,27
8280,780
8281,287
8282,85
8283,110
8284,204
8285,60
8286,63
8287,536
8288,209
8289,278
8290,259
8291,129
8292,113
8293,323
8294,536
8295,519
8296,69
8297,260
8298,198
8299,49
8300,190
8301,104
8302,246
8303,114
8304,78
8305,27
8306,177
8307,323
8308,217
8309,171
8310,209
8311,60
8312,63
8313,71
8314,55
8315,625
8316,200
8317,211
8318,363
8319,101
8320,63
8321,528
8322,58
8323,169
8324,132
8325,287
8326,124
8327,231
8328,263
8329,30
8330,195
8331,60
8332,85
8333,268
8334,69
8335,135
8336,259
8337,301
8338,175
8339,135
8340,412
8341,614
8342,250
8343,459
8344,183
8345,183
8346,27
8347,278
8348,301
8349,413
8350,179
8351,241
8352,323
8353,84
8354,183
8355,6
8356,741
8357,67
8358,104
8359,667
8360,672
8361,208
8362,195
8363,27
8364,599
8365,105
8366,209
8367,536
8368,614
8369,85
8370,536
8371,479
8372,189
8373,160
8374,7
8375,149
8376,176
8377,121
8378,222
8379,233
8380,287
8381,294
8382,200
8383,630
8384,156
8385,549
8386,183
8387,104
8388,625
8389,263
8390,116
8391,177
8392,131
8393,190
8394,132
8395,126
8396,195
8397,715
8398,780
8399,129
8400,519
8401,163
8402,7
8403,190
8404,122
8405,248
8406,63
8407,149
8408,30
8409,177
8410,67
8411,633
8412,114
8413,104
8414,67
8415,69
8416,251
8417,114
8418,58
8419,118
8420,52
8421,55
8422,667
8423,220
8424,114
8425,85
8426,410
8427,165
8428,69
8429,135
8430,528
8431,195
8432,784
8433,58
8434,63
8435,410
8436,47
8437,54
8438,208
8439,506
8440,6
8441,515
8442,438
8443,6
8444,163
8445,142
8446,27
8447,71
8448,506
8449,722
8450,183
8451,175
8452,294
8453,85
8454,169
8455,84
8456,176
8457,132
8458,506
8459,163
8460,301
8461,163
8462,171
8463,176
8464,47
8465,479
8466,123
8467,6
8468,323
8469,7
8470,88
8471,105
8472,84
8473,214
8474,78
8475,220
8476,711
8477,69
8478,213
8479,672
8480,780
8481,204
8482,413
8483,231
8484,129
8485,198
8486,58
8487,107
8488,135
8489,231
8490,47
8491,60
8492,456
8493,722
8494,263
8495,784
8496,169
8497,163
8498,217
8499,257
8500,122
8501,163
8502,58
8503,301
8504,626
8505,149
8506,58
8507,129
8508,179
8509,219
8510,183
8511,711
8512,47
8513,183
8514,625
8515,104
8516,251
8517,169
8518,506
8519,97
8520,231
8521,236
8522,225
8523,0
8524,79
8525,204
8526,183
8527,214
8528,137
8529,169
8530,55
8531,111
8532,165
8533,7
8534,214
8535,186
8536,47
8537,88
8538,163
8539,782
8540,27
8541,156
8542,108
8543,287
8544,60
8545,58
8546,131
8547,135
8548,205
8549,47
8550,626
8551,294
8552,248
8553,211
8554,206
8555,741
8556,625
8557,204
8558,549
8559,711
8560,268
8561,741
8562,149
8563,163
8564,626
8565,213
8566,251
8567,60
8568,236
8569,254
8570,246
8571,236
8572,245
8573,506
8574,301
8575,114
8576,58
8577,85
8578,519
8579,27
8580,506
8581,67
8582,60
8583,63
8584,667
8585,259
8586,169
8587,175
8588,230
8589,114
8590,784
8591,528
8592,287
8593,88
8594,63
8595,54
8596,129
8597,479
8598,196
8599,196
8600,176
8601,711
8602,175
8603,114
8604,196
8605,129
8606,114
8607,506
8608,222
8609,287
8610,71
8611,250
8612,27
8613,506
8614,123
8615,667
8616,264
8617,84
8618,163
8619,84
8620,165
8621,150
8622,104
8623,715
8624,177
8625,84
8626,118
8627,248
8628,58
8629,231
8630,190
8631,111
8632,122
8633,301
8634,278
8635,129
8636,30
8637,528
8638,672
8639,6
8640,71
8641,528
8642,122
8643,129
8644,235
8645,205
8646,112
8647,144
8648,171
8649,27
8650,79
8651,27
8652,58
8653,222
8654,251
8655,254
8656,456
8657,133
8658,216
8659,144
8660,238
8661,60
8662,515
8663,323
8664,528
8665,156
8666,83
8667,129
8668,287
8669,52
8670,206
8671,52
8672,287
8673,241
8674,230
8675,625
8676,248
8677,132
8678,54
8679,156
8680,235
8681,118
8682,410
8683,413
8684,741
8685,60
8686,479
8687,69
8688,220
8689,183
8690,267
8691,111
8692,250
8693,113
8694,6
8695,49
8696,179
8697,211
8698,278
8699,143
8700,225
8701,30
8702,72
8703,60
8704,60
8705,198
8706,213
8707,122
8708,519
8709,222
8710,278
8711,263
8712,149
8713,506
8714,459
8715,121
8716,84
8717,129
8718,7
8719,183
8720,278
8721,208
8722,137
8723,536
8724,30
8725,72
8726,6
8727,133
8728,183
8729,626
8730,287
8731,129
8732,20
8733,52
8734,69
8735,165
8736,149
8737,7
8738,47
8739,47
8740,85
8741,169
8742,58
8743,129
8744,245
8745,114
8746,135
8747,301
8748,183
8749,214
8750,183
8751,160
8752,179
8753,211
8754,287
8755,246
8756,142
8757,63
8758,287
8759,248
8760,131
8761,5
8762,200
8763,519
8764,506
8765,363
8766,189
8767,198
8768,260
8769,121
8770,225
8771,221
8772,85
8773,69
8774,506
8775,132
8776,142
8777,163
8778,111
8779,58
8780,20
8781,47
8782,268
8783,784
8784,528
8785,221
8786,190
8787,264
8788,263
8789,236
8790,177
8791,126
8792,31
8793,114
8794,6
8795,111
8796,254
8797,230
8798,672
8799,208
8800,515
8801,254
8802,209
8803,208
8804,169
8805,221
8806,189
8807,248
8808,177
8809,6
8810,63
8811,109
8812,58
8813,190
8814,60
8815,135
8816,189
8817,257
8818,61
8819,79
8820,129
8821,160
8822,278
8823,27
8824,250
8825,186
8826,630
8827,155
8828,245
8829,114
8830,301
8831,52
8832,479
8833,220
8834,412
8835,625
8836,142
8837,131
8838,122
8839,206
8840,294
8841,85
8842,287
8843,722
8844,27
8845,506
8846,217
8847,176
8848,625
8849,258
8850,27
8851,55
8852,626
8853,124
8854,83
8855,241
8856,7
8857,217
8858,506
8859,711
8860,715
8861,129
8862,143
8863,231
8864,27
8865,205
8866,105
8867,169
8868,448
8869,722
8870,722
8871,196
8872,195
8873,20
8874,6
8875,195
8876,741
8877,131
8878,257
8879,114
8880,183
8881,260
8882,20
8883,780
8884,110
8885,157
8886,171
8887,176
8888,129
8889,251
8890,7
8891,131
8892,268
8893,519
8894,506
8895,722
8896,84
8897,722
8898,519
8899,250
8900,6
8901,214
8902,189
8903,60
8904,179
8905,144
8906,6
8907,179
8908,79
8909,741
8910,104
8911,625
8912,137
8913,506
8914,260
8915,233
8916,519
8917,479
8918,301
8919,135
8920,225
8921,110
8922,528
8923,245
8924,204
8925,248
8926,160
8927,213
8928,58
8929,264
8930,61
8931,198
8932,104
8933,97
8934,169
8935,536
8936,124
8937,220
8938,149
8939,294
8940,197
8941,236
8942,20
8943,126
8944,177
8945,55
8946,225
8947,133
8948,251
8949,228
8950,157
8951,208
8952,69
8953,155
8954,155
8955,196
8956,222
8957,142
8958,294
8959,536
8960,189
8961,213
8962,144
8963,171
8964,214
8965,169
8966,438
8967,208
8968,189
8969,287
8970,208
8971,71
8972,572
8973,410
8974,204
8975,1
8976,222
8977,20
8978,236
8979,160
8980,47
8981,213
8982,536
8983,58
8984,223
8985,672
8986,506
8987,105
8988,667
8989,88
8990,58
8991,233
8992,672
8993,176
8994,186
8995,264
8996,49
8997,2
8998,6
8999,175
9000,190
9001,246
9002,20
9003,155
9004,268
9005,47
9006,200
9007,173
9008,287
9009,630
9010,58
9011,301
9012,221
9013,190
9014,155
9015,135
9016,217
9017,135
9018,248
9019,448
9020,137
9021,248
9022,183
9023,179
9024,170
9025,30
9026,164
9027,169
9028,85
9029,200
9030,55
9031,30
9032,257
9033,155
9034,626
9035,183
9036,741
9037,33
9038,223
9039,448
9040,287
9041,784
9042,67
9043,667
9044,186
9045,135
9046,170
9047,209
9048,122
9049,61
9050,197
9051,111
9052,225
9053,58
9054,104
9055,222
9056,60
9057,294
9058,6
9059,220
9060,412
9061,60
9062,209
9063,88
9064,203
9065,163
9066,479
9067,672
9068,28
9069,183
9070,248
9071,196
9072,88
9073,27
9074,181
9075,236
9076,287
9077,135
9078,181
9079,170
9080,221
9081,268
9082,6
9083,301
9084,287
9085,186
9086,27
9087,104
9088,27
9089,110
9090,114
9091,176
9092,195
9093,223
9094,225
9095,137
9096,60
9097,5
9098,112
9099,536
9100,177
9101,114
9102,711
9103,160
9104,186
9105,150
9106,241
9107,79
9108,549
9109,179
9110,438
9111,254
9112,169
9113,209
9114,173
9115,318
9116,30
9117,528
9118,204
9119,506
9120,131
9121,186
9122,71
9123,479
9124,126
9125,633
9126,784
9127,235
9128,195
9129,515
9130,235
9131,630
9132,412
9133,58
9134,27
9135,111
9136,80
9137,667
9138,287
9139,47
9140,69
9141,171
9142,633
9143,179
9144,88
9145,118
9146,169
9147,549
9148,155
9149,157
9150,225
9151,142
9152,214
9153,190
9154,672
9155,195
9156,260
9157,27
9158,225
9159,233
9160,58
9161,626
9162,105
9163,179
9164,239
9165,200
9166,195
9167,219
9168,67
9169,410
9170,60
9171,784
9172,122
9173,214
9174,217
9175,116
9176,176
9177,722
9178,667
9179,780
9180,287
9181,214
9182,294
9183,183
9184,118
9185,69
9186,190
9187,208
9188,3
9189,155
9190,225
9191,189
9192,672
9193,479
9194,60
9195,109
9196,220
9197,204
9198,124
9199,142
9200,206
9201,60
9202,780
9203,69
9204,113
9205,186
9206,459
9207,144
9208,667
9209,248
9210,169
9211,69
9212,155
9213,189
9214,259
9215,175
9216,183
9217,294
9218,722
9219,214
9220,122
9221,208
9222,506
9223,155
9224,114
9225,88
9226,137
9227,264
9228,196
9229,528
9230,149
9231,179
9232,625
9233,672
9234,259
9235,132
9236,251
9237,131
9238,112
9239,225
9240,135
9241,182
9242,241
9243,84
9244,741
9245,183
9246,186
9247,672
9248,549
9249,7
9250,67
9251,157
9252,155
9253,263
9254,186
9255,179
9256,129
9257,157
9258,195
9259,222
9260,741
9261,236
9262,223
9263,196
9264,268
9265,199
9266,142
9267,144
9268,149
9269,515
9270,268
9271,116
9272,169
9273,715
9274,84
9275,219
9276,132
9277,176
9278,323
9279,114
9280,722
9281,672
9282,129
9283,260
9284,111
9285,363
9286,63
9287,479
9288,377
9289,248
9290,183
9291,195
9292,135
9293,287
9294,20
9295,84
9296,85
9297,144
9298,236
9299,104
9300,196
9301,219
9302,107
9303,47
9304,248
9305,780
9306,181
9307,323
9308,236
9309,287
9310,88
9311,209
9312,223
9313,626
9314,183
9315,221
9316,183
9317,179
9318,28
9319,61
9320,157
9321,27
9322,211
9323,528
9324,528
9325,667
9326,85
9327,177
9328,124
9329,213
9330,260
9331,123
9332,122
9333,83
9334,195
9335,203
9336,107
9337,294
9338,196
9339,448
9340,241
9341,183
9342,129
9343,196
9344,301
9345,58
9346,722
9347,236
9348,58
9349,195
9350,113
9351,105
9352,239
9353,528
9354,236
9355,203
9356,7
9357,412
9358,278
9359,88
9360,260
9361,572
9362,30
9363,169
9364,129
9365,58
9366,69
9367,30
9368,30
9369,195
9370,223
9371,155
9372,254
9373,711
9374,260
9375,363
9376,715
9377,479
9378,170
9379,633
9380,667
9381,179
9382,131
9383,143
9384,6
9385,479
9386,235
9387,179
9388,129
9389,241
9390,241
9391,268
9392,241
9393,126
9394,506
9395,782
9396,112
9397,287
9398,47
9399,479
9400,456
9401,625
9402,180
9403,741
9404,69
9405,217
9406,294
9407,780
9408,196
9409,135
9410,217
9411,87
9412,183
9413,121
9414,238
9415,47
9416,52
9417,196
9418,230
9419,479
9420,175
9421,27
9422,614
9423,122
9424,124
9425,131
9426,6
9427,88
9428,179
9429,246
9430,208
9431,719
9432,219
9433,61
9434,132
9435,268
9436,122
9437,177
9438,323
9439,112
9440,182
9441,63
9442,323
9443,107
9444,30
9445,211
9446,183
9447,197
9448,363
9449,150
9450,245
9451,214
9452,189
9453,195
9454,6
9455,112
9456,208
9457,84
9458,248
9459,715
9460,144
9461,88
9462,208
9463,78
9464,163
9465,287
9466,268
9467,528
9468,190
9469,129
9470,114
9471,630
9472,131
9473,142
9474,157
9475,6
9476,133
9477,5
9478,177
9479,114
9480,175
9481,155
9482,536
9483,175
9484,195
9485,479
9486,200
9487,236
9488,135
9489,20
9490,294
9491,118
9492,572
9493,88
9494,30
9495,214
9496,84
9497,72
9498,213
9499,107
9500,672
9501,104
9502,144
9503,104
9504,4
9505,80
9506,614
9507,259
9508,189
9509,55
9510,217
9511,182
9512,479
9513,519
9514,549
9515,58
9516,780
9517,142
9518,67
9519,200
9520,506
9521,206
9522,171
9523,49
9524,236
9525,58
9526,200
9527,60
9528,200
9529,250
9530,722
9531,479
9532,27
9533,214
9534,179
9535,112
9536,47
9537,323
9538,101
9539,222
9540,259
9541,156
9542,107
9543,179
9544,163
9545,219
9546,114
9547,165
9548,515
9549,67
9550,156
9551,157
9552,163
9553,179
9554,231
9555,111
9556,217
9557,251
9558,61
9559,33
9560,251
9561,118
9562,182
9563,61
9564,479
9565,572
9566,536
9567,204
9568,163
9569,124
9570,124
9571,301
9572,536
9573,27
9574,220
9575,27
9576,287
9577,782
9578,163
9579,206
9580,67
9581,196
9582,216
9583,479
9584,129
9585,323
9586,163
9587,170
9588,176
9589,183
9590,780
9591,6
9592,27
9593,6
9594,47
9595,672
9596,225
9597,149
9598,107
9599,112
9600,169
9601,236
9602,506
9603,448
9604,204
9605,58
9606,711
9607,163
9608,150
9609,158
9610,217
9611,248
9612,278
9613,208
9614,129
9615,183
9616,80
9617,287
9618,33
9619,248
9620,248
9621,198
9622,155
9623,176
9624,251
9625,179
9626,278
9627,6
9628,287
9629,479
9630,104
9631,363
9632,268
9633,30
9634,528
9635,122
9636,506
9637,71
9638,123
9639,149
9640,780
9641,177
9642,177
9643,190
9644,149
9645,506
9646,149
9647,214
9648,49
9649,135
9650,278
9651,158
9652,264
9653,722
9654,268
9655,67
9656,572
9657,169
9658,197
9659,114
9660,30
9661,71
9662,112
9663,69
9664,235
9665,214
9666,114
9667,301
9668,107
9669,506
9670,27
9671,528
9672,107
9673,479
9674,170
9675,67
9676,459
9677,88
9678,165
9679,104
9680,71
9681,195
9682,69
9683,222
9684,110
9685,71
9686,448
9687,61
9688,101
9689,246
9690,519
9691,84
9692,220
9693,69
9694,114
9695,112
9696,214
9697,268
9698,126
9699,84
9700,69
9701,780
9702,250
9703,169
9704,156
9705,711
9706,220
9707,225
9708,60
9709,204
9710,263
9711,58
9712,135
9713,137
9714,363
9715,231
9716,536
9717,208
9718,213
9719,230
9720,183
9721,163
9722,175
9723,221
9724,131
9725,208
9726,179
9727,222
9728,196
9729,225
9730,169
9731,27
9732,287
9733,179
9734,183
9735,30
9736,448
9737,135
9738,131
9739,233
9740,614
9741,323
9742,182
9743,268
9744,549
9745,52
9746,667
9747,30
9748,220
9749,519
9750,225
9751,8
9752,114
9753,27
9754,780
9755,163
9756,176
9757,667
9758,72
9759,142
9760,241
9761,264
9762,236
9763,209
9764,204
9765,236
9766,181
9767,223
9768,780
9769,672
9770,241
9771,456
9772,156
9773,78
9774,633
9775,160
9776,60
9777,175
9778,101
9779,101
9780,235
9781,259
9782,254
9783,122
9784,225
9785,233
9786,17
9787,459
9788,58
9789,301
9790,672
9791,784
9792,248
9793,222
9794,222
9795,9
9796,260
9797,780
9798,301
9799,599
9800,209
9801,129
9802,363
9803,225
9804,190
9805,363
9806,114
9807,294
9808,217
9809,196
9810,209
9811,30
9812,479
9813,129
9814,5
9815,135
9816,625
9817,549
9818,149
9819,176
9820,242
9821,294
9822,149
9823,780
9824,20
9825,160
9826,197
9827,206
9828,163
9829,214
9830,112
9831,144
9832,179
9833,143
9834,30
9835,301
9836,121
9837,98
9838,6
9839,143
9840,60
9841,221
9842,784
9843,722
9844,208
9845,87
9846,175
9847,47
9848,58
9849,260
9850,78
9851,175
9852,459
9853,105
9854,214
9855,195
9856,173
9857,179
9858,633
9859,528
9860,63
9861,47
9862,625
9863,219
9864,630
9865,179
9866,506
9867,572
9868,79
9869,33
9870,784
9871,633
9872,129
9873,223
9874,260
9875,536
9876,519
9877,79
9878,6
9879,179
9880,230
9881,221
9882,633
9883,479
9884,217
9885,259
9886,47
9887,233
9888,52
9889,630
9890,268
9891,195
9892,72
9893,221
9894,97
9895,176
9896,143
9897,169
9898,173
9899,236
9900,236
9901,101
9902,30
9903,412
9904,239
9905,101
9906,101
9907,129
9908,267
9909,105
9910,667
9911,7
9912,228
9913,323
9914,146
9915,175
9916,244
9917,254
9918,242
9919,711
9920,10
9921,780
9922,107
9923,722
9924,254
9925,235
9926,33
9927,198
9928,142
9929,239
9930,519
9931,142
9932,506
9933,179
9934,287
9935,169
9936,208
9937,27
9938,456
9939,236
9940,162
9941,195
9942,47
9943,112
9944,49
9945,301
9946,238
9947,122
9948,217
9949,235
9950,722
9951,667
9952,672
9953,163
9954,633
9955,230
9956,711
9957,528
9958,78
9959,251
9960,268
9961,160
9962,122
9963,199
9964,79
9965,199
9966,30
9967,20
9968,323
9969,257
9970,33
9971,448
9972,203
9973,142
9974,294
9975,197
9976,519
9977,225
9978,200
9979,170
9980,268
9981,519
9982,236
9983,142
9984,155
9985,459
9986,519
9987,101
9988,780
9989,156
9990,133
9991,528
9992,259
9993,741
9994,72
9995,572
9996,251
9997,719
9998,711
9999,782
10000,323
10001,71
10002,58
10003,231
10004,230
10005,625
10006,667
10007,506
10008,222
10009,220
10010,158
10011,67
10012,241
10013,69
10014,198
10015,318
10016,187
10017,142
10018,149
10019,156
10020,177
10021,132
10022,200
10023,198
10024,251
10025,323
10026,719
10027,246
10028,122
10029,173
10030,55
10031,221
10032,220
10033,104
10034,55
10035,84
10036,6
10037,131
10038,214
10039,52
10040,225
10041,222
10042,213
10043,169
10044,236
10045,58
10046,228
10047,47
10048,177
10049,672
10050,109
10051,223
10052,84
10053,479
10054,250
10055,105
10056,782
10057,287
10058,183
10059,242
10060,206
10061,78
10062,549
10063,131
10064,150
10065,121
10066,49
10067,257
10068,165
10069,672
10070,782
10071,246
10072,84
10073,782
10074,782
10075,55
10076,107
10077,205
10078,519
10079,633
10080,222
10081,722
10082,71
10083,180
10084,536
10085,84
10086,85
10087,124
10088,54
10089,72
10090,245
10091,72
10092,222
10093,780
10094,109
10095,171
10096,630
10097,287
10098,268
10099,222
10100,246
10101,156
10102,137
10103,222
10104,246
10105,519
10106,784
10107,60
10108,722
10109,506
10110,20
10111,187
10112,112
10113,111
10114,572
10115,171
10116,208
10117,782
10118,173
10119,268
10120,294
10121,263
10122,61
10123,196
10124,110
10125,213
10126,625
10127,171
10128,186
10129,101
10130,142
10131,782
10132,97
10133,83
10134,122
10135,195
10136,200
10137,515
10138,222
10139,183
10140,236
10141,241
10142,69
10143,519
10144,79
10145,135
10146,549
10147,63
10148,363
10149,163
10150,55
10151,49
10152,630
10153,170
10154,217
10155,287
10156,214
10157,780
10158,205
10159,171
10160,176
10161,672
10162,143
10163,126
10164,251
10165,133
10166,246
10167,515
10168,784
10169,52
10170,113
10171,177
10172,225
10173,33
10174,572
10175,55
10176,7
10177,180
10178,287
10179,258
10180,30
10181,251
10182,88
10183,6
10184,47
10185,268
10186,72
10187,251
10188,6
10189,287
10190,287
10191,633
10192,69
10193,83
10194,230
10195,715
10196,219
10197,85
10198,87
10199,206
10200,209
10201,233
10202,214
10203,784
10204,741
10205,519
10206,58
10207,84
10208,456
10209,124
10210,176
10211,268
10212,88
10213,630
10214,88
10215,6
10216,60
10217,164
10218,175
10219,85
10220,225
10221,196
10222,217
10223,246
10224,200
10225,71
10226,122
10227,722
10228,104
10229,179
10230,222
10231,55
10232,156
10233,217
10234,88
10235,6
10236,157
10237,572
10238,263
10239,782
10240,87
10241,241
10242,58
10243,107
10244,213
10245,223
10246,254
10247,784
10248,137
10249,189
10250,197
10251,78
10252,177
10253,287
10254,782
10255,672
10256,515
10257,195
10258,459
10259,630
10260,672
10261,20
10262,625
10263,257
10264,118
10265,175
10266,672
10267,190
10268,741
10269,780
10270,129
10271,149
10272,177
10273,7
10274,536
10275,323
10276,241
10277,170
10278,711
10279,599
10280,260
10281,626
10282,242
10283,179
10284,69
10285,222
10286,780
10287,27
10288,101
10289,438
10290,157
10291,222
10292,251
10293,223
10294,30
10295,536
10296,206
10297,536
10298,58
10299,196
10300,135
10301,176
10302,217
10303,301
10304,214
10305,186
10306,363
10307,182
10308,163
10309,183
10310,6
10311,173
10312,109
10313,158
10314,626
10315,230
10316,200
10317,630
10318,221
10319,222
10320,412
10321,287
10322,186
10323,155
10324,719
10325,230
10326,55
10327,263
10328,254
10329,287
10330,214
10331,236
10332,782
10333,205
10334,208
10335,323
10336,549
10337,196
10338,784
10339,479
10340,142
10341,225
10342,107
10343,183
10344,101
10345,263
10346,287
10347,67
10348,137
10349,626
10350,219
10351,189
10352,264
10353,181
10354,109
10355,6
10356,217
10357,88
10358,287
10359,107
10360,71
10361,515
10362,528
10363,107
10364,71
10365,251
10366,156
10367,189
10368,208
10369,47
10370,156
10371,222
10372,157
10373,173
10374,165
10375,124
10376,30
10377,711
10378,363
10379,203
10380,54
10381,536
10382,58
10383,223
10384,7
10385,278
10386,259
10387,7
10388,84
10389,112
10390,67
10391,181
10392,231
10393,626
10394,287
10395,27
10396,479
10397,180
10398,412
10399,126
10400,72
10401,58
10402,614
10403,179
10404,222
10405,6
10406,536
10407,180
10408,715
10409,131
10410,625
10411,160
10412,211
10413,528
10414,135
10415,61
10416,412
10417,213
10418,413
10419,221
10420,160
10421,711
10422,171
10423,246
10424,287
10425,528
10426,171
10427,614
10428,479
10429,121
10430,144
10431,549
10432,197
10433,614
10434,196
10435,221
10436,459
10437,112
10438,254
10439,131
10440,155
10441,715
10442,287
10443,47
10444,479
10445,107
10446,164
10447,672
10448,239
10449,479
10450,79
10451,205
10452,58
10453,231
10454,630
10455,219
10456,625
10457,254
10458,114
10459,144
10460,250
10461,200
10462,176
10463,630
10464,236
10465,164
10466,149
10467,71
10468,519
10469,715
10470,246
10471,239
10472,101
10473,208
10474,186
10475,448
10476,137
10477,146
10478,287
10479,672
10480,195
10481,519
10482,413
10483,741
10484,156
10485,206
10486,129
10487,169
10488,225
10489,170
10490,165
10491,614
10492,363
10493,251
10494,104
10495,363
10496,214
10497,614
10498,722
10499,179
10500,245
10501,63
10502,260
10503,72
10504,135
10505,251
10506,614
10507,186
10508,163
10509,197
10510,176
10511,85
10512,287
10513,438
10514,149
10515,196
10516,363
10517,519
10518,209
10519,672
10520,160
10521,112
10522,214
10523,204
10524,254
10525,186
10526,448
10527,515
10528,599
10529,84
10530,667
10531,137
10532,528
10533,438
10534,251
10535,519
10536,71
10537,222
10538,173
10539,101
10540,614
10541,219
10542,780
10543,231
10544,170
10545,186
10546,251
10547,200
10548,133
10549,107
10550,118
10551,625
10552,741
10553,88
10554,52
10555,206
10556,30
10557,79
10558,222
10559,231
10560,150
10561,52
10562,456
10563,205
10564,549
10565,506
10566,301
10567,116
10568,626
10569,61
10570,549
10571,85
10572,129
10573,506
10574,58
10575,209
10576,287
10577,105
10578,52
10579,190
10580,122
10581,105
10582,242
10583,301
10584,216
10585,157
10586,715
10587,318
10588,633
10589,784
10590,157
10591,251
10592,519
10593,47
10594,626
10595,126
10596,149
10597,196
10598,208
10599,60
10600,30
10601,222
10602,233
10603,599
10604,235
10605,789
10606,672
10607,572
10608,149
10609,85
10610,104
10611,225
10612,162
10613,268
10614,715
10615,114
10616,251
10617,549
10618,181
10619,104
10620,301
10621,47
10622,209
10623,711
10624,7
10625,784
10626,72
10627,101
10628,672
10629,223
10630,549
10631,625
10632,78
10633,186
10634,17
10635,260
10636,294
10637,49
10638,672
10639,163
10640,6
10641,667
10642,250
10643,479
10644,784
10645,438
10646,268
10647,196
10648,268
10649,235
10650,236
10651,149
10652,248
10653,246
10654,146
10655,479
10656,225
10657,114
10658,98
10659,244
10660,217
10661,410
10662,572
10663,142
10664,528
10665,177
10666,164
10667,126
10668,143
10669,149
10670,113
10671,323
10672,169
10673,251
10674,114
10675,107
10676,287
10677,79
10678,264
10679,183
10680,536
10681,173
10682,204
10683,163
10684,221
10685,162
10686,219
10687,69
10688,715
10689,63
10690,719
10691,87
10692,144
10693,630
10694,126
10695,177
10696,626
10697,122
10698,104
10699,52
10700,258
10701,208
10702,789
10703,135
10704,49
10705,126
10706,160
10707,176
10708,126
10709,30
10710,672
10711,58
10712,246
10713,181
10714,163
10715,198
10716,220
10717,711
10718,784
10719,176
10720,722
10721,257
10722,220
10723,239
10724,176
10725,144
10726,206
10727,246
10728,248
10729,58
10730,177
10731,164
10732,144
10733,204
10734,251
10735,131
10736,519
10737,233
10738,171
10739,208
10740,221
10741,244
10742,33
10743,169
10744,101
10745,157
10746,190
10747,176
10748,599
10749,711
10750,165
10751,268
10752,784
10753,129
10754,163
10755,6
10756,222
10757,101
10758,780
10759,536
10760,225
10761,667
10762,667
10763,536
10764,137
10765,132
10766,118
10767,190
10768,114
10769,164
10770,175
10771,214
10772,31
10773,113
10774,251
10775,549
10776,519
10777,519
10778,722
10779,211
10780,183
10781,179
10782,236
10783,536
10784,88
10785,287
10786,27
10787,536
10788,267
10789,536
10790,246
10791,287
10792,137
10793,633
10794,216
10795,741
10796,519
10797,156
10798,536
10799,549
10800,626
10801,55
10802,246
10803,144
10804,208
10805,301
10806,131
10807,144
10808,47
10809,61
10810,30
10811,208
10812,268
10813,625
10814,63
10815,71
10816,216
10817,200
10818,412
10819,187
10820,67
10821,164
10822,109
10823,169
10824,667
10825,287
10826,31
10827,410
10828,111
10829,197
10830,245
10831,233
10832,47
10833,183
10834,715
10835,195
10836,149
10837,143
10838,221
10839,52
10840,528
10841,519
10842,528
10843,230
10844,30
10845,144
10846,711
10847,222
10848,195
10849,236
10850,614
10851,69
10852,536
10853,515
10854,268
10855,225
10856,549
10857,287
10858,209
10859,241
10860,536
10861,672
10862,204
10863,323
10864,614
10865,741
10866,85
10867,536
10868,79
10869,88
10870,216
10871,163
10872,206
10873,263
10874,55
10875,630
10876,572
10877,251
10878,220
10879,264
10880,217
10881,667
10882,519
10883,223
10884,132
10885,519
10886,225
10887,79
10888,88
10889,410
10890,301
10891,254
10892,459
10893,200
10894,198
10895,183
10896,190
10897,27
10898,233
10899,143
10900,6
10901,614
10902,459
10903,156
10904,135
10905,278
10906,84
10907,71
10908,711
10909,722
10910,722
10911,219
10912,479
10913,155
10914,722
10915,47
10916,741
10917,197
10918,572
10919,129
10920,241
10921,158
10922,268
10923,211
10924,236
10925,47
10926,183
10927,528
10928,195
10929,177
10930,614
10931,245
10932,137
10933,124
10934,278
10935,287
10936,157
10937,124
10938,239
10939,179
10940,715
10941,246
10942,173
10943,711
10944,667
10945,217
10946,614
10947,69
10948,599
10949,672
10950,209
10951,195
10952,146
10953,27
10954,228
10955,137
10956,30
10957,722
10958,104
10959,88
10960,459
10961,61
10962,722
10963,549
10964,672
10965,572
10966,667
10967,190
10968,175
10969,782
10970,124
10971,20
10972,225
10973,196
10974,208
10975,143
10976,260
10977,258
10978,58
10979,183
10980,784
10981,170
10982,254
10983,536
10984,323
10985,519
10986,135
10987,236
10988,69
10989,160
10990,301
10991,248
10992,235
10993,58
10994,220
10995,121
10996,225
10997,124
10998,118
10999,242
11000,200
11001,633
11002,47
11003,536
11004,196
11005,181
11006,251
11007,165
11008,85
11009,196
11010,156
11011,84
11012,236
11013,104
11014,784
11015,110
11016,506
11017,667
11018,287
11019,52
11020,217
11021,208
11022,204
11023,52
11024,667
11025,519
11026,519
11027,179
11028,78
11029,199
11030,157
11031,519
11032,264
11033,144
11034,200
11035,225
11036,245
11037,132
11038,236
11039,741
11040,254
11041,251
11042,254
11043,459
11044,633
11045,179
11046,459
11047,171
11048,163
11049,301
11050,31
11051,109
11052,536
11053,479
11054,6
11055,6
11056,211
11057,101
11058,129
11059,626
11060,287
11061,156
11062,323
11063,667
11064,67
11065,155
11066,231
11067,31
11068,672
11069,614
11070,214
11071,667
11072,209
11073,104
11074,214
11075,301
11076,251
11077,107
11078,238
11079,259
11080,711
11081,231
11082,214
11083,536
11084,263
11085,784
11086,114
11087,98
11088,260
11089,260
11090,170
11091,519
11092,301
11093,719
11094,254
11095,195
11096,155
11097,132
11098,572
11099,122
11100,294
11101,181
11102,782
11103,186
11104,519
11105,113
11106,165
11107,189
11108,254
11109,197
11110,228
11111,27
11112,6
11113,27
11114,157
11115,30
11116,52
11117,126
11118,105
11119,214
11120,79
11121,183
11122,160
11123,260
11124,456
11125,213
11126,235
11127,519
11128,230
11129,149
11130,216
11131,54
11132,78
11133,143
11134,143
11135,78
11136,258
11137,60
11138,30
11139,741
11140,206
11141,176
11142,97
11143,248
11144,245
11145,105
11146,69
11147,112
11148,251
11149,160
11150,104
11151,195
11152,71
11153,135
11154,260
11155,363
11156,196
11157,251
11158,268
11159,626
11160,222
11161,195
11162,186
11163,198
11164,528
11165,116
11166,238
11167,456
11168,515
11169,33
11170,69
11171,479
11172,459
11173,137
11174,219
11175,116
11176,114
11177,251
11178,142
11179,479
11180,242
11181,67
11182,410
11183,323
11184,83
11185,263
11186,225
11187,257
11188,672
11189,171
11190,54
11191,626
11192,630
11193,61
11194,614
11195,58
11196,122
11197,672
11198,206
11199,137
11200,246
11201,506
11202,251
11203,171
11204,78
11205,144
11206,719
11207,209
11208,363
11209,246
11210,133
11211,251
11212,626
11213,246
11214,214
11215,233
11216,254
11217,479
11218,105
11219,780
11220,71
11221,200
11222,711
11223,101
11224,107
11225,114
11226,142
11227,79
11228,301
11229,667
11230,479
11231,264
11232,214
11233,176
11234,116
11235,97
11236,278
11237,519
11238,107
11239,242
11240,107
11241,156
11242,258
11243,80
11244,572
11245,126
11246,197
11247,216
11248,667
11249,672
11250,55
11251,217
11252,200
11253,197
11254,287
11255,214
11256,614
11257,60
11258,412
11259,741
11260,323
11261,107
11262,6
11263,244
11264,142
11265,135
11266,251
11267,71
11268,105
11269,633
11270,144
11271,83
11272,71
11273,221
11274,79
11275,413
11276,204
11277,722
11278,784
11279,132
11280,363
11281,614
11282,171
11283,214
11284,69
11285,199
11286,711
11287,287
11288,239
11289,54
11290,169
11291,58
11292,667
11293,156
11294,301
11295,626
11296,259
11297,711
11298,196
11299,323
11300,183
11301,784
11302,410
11303,63
11304,294
11305,230
11306,110
11307,233
11308,135
11309,107
11310,107
11311,301
11312,536
11313,165
11314,536
11315,107
11316,251
11317,107
11318,264
11319,105
11320,506
11321,58
11322,183
11323,630
11324,479
11325,60
11326,183
11327,214
11328,245
11329,208
11330,519
11331,242
11332,204
11333,58
11334,196
11335,101
11336,176
11337,55
11338,124
11339,155
11340,209
11341,190
11342,146
11343,6
11344,506
11345,667
11346,614
11347,222
11348,235
11349,63
11350,132
11351,71
11352,267
11353,69
11354,143
11355,196
11356,784
11357,129
11358,667
11359,780
11360,142
11361,528
11362,137
11363,782
11364,784
11365,236
11366,225
11367,479
11368,209
11369,27
11370,137
11371,176
11372,599
11373,80
11374,33
11375,278
11376,208
11377,633
11378,208
11379,784
11380,213
11381,176
11382,149
11383,183
11384,186
11385,625
11386,165
11387,715
11388,33
11389,536
11390,667
11391,254
11392,6
11393,301
11394,116
11395,287
11396,221
11397,27
11398,58
11399,137
11400,614
11401,214
11402,741
11403,672
11404,105
11405,236
11406,741
11407,63
11408,519
11409,165
11410,157
11411,129
11412,260
11413,84
11414,626
11415,239
11416,61
11417,209
11418,479
11419,142
11420,84
11421,163
11422,195
11423,7
11424,164
11425,190
11426,30
11427,236
11428,536
11429,258
11430,67
11431,230
11432,630
11433,200
11434,33
11435,363
11436,519
11437,158
11438,264
11439,143
11440,30
11441,515
11442,190
11443,55
11444,110
11445,625
11446,225
11447,149
11448,182
11449,599
11450,225
11451,104
11452,614
11453,88
11454,254
11455,206
11456,236
11457,519
11458,84
11459,250
11460,137
11461,137
11462,301
11463,179
11464,572
11465,179
11466,156
11467,667
11468,231
11469,58
11470,780
11471,278
11472,179
11473,230
11474,177
11475,155
11476,155
11477,135
11478,216
11479,614
11480,217
11481,250
11482,107
11483,132
11484,260
11485,28
11486,479
11487,225
11488,164
11489,667
11490,630
11491,301
11492,216
11493,258
11494,236
11495,599
11496,203
11497,169
11498,164
11499,105
11500,268
11501,63
11502,132
11503,287
11504,278
11505,67
11506,47
11507,177
11508,241
11509,133
11510,219
11511,572
11512,104
11513,144
11514,208
11515,208
11516,132
11517,124
11518,60
11519,175
11520,142
11521,260
11522,79
11523,54
11524,105
11525,47
11526,528
11527,175
11528,294
11529,183
11530,209
11531,479
11532,63
11533,84
11534,17
11535,633
11536,144
11537,58
11538,155
11539,186
11540,129
11541,287
11542,410
11543,28
11544,323
11545,626
11546,268
11547,633
11548,137
11549,183
11550,7
11551,114
11552,225
11553,176
11554,69
11555,236
11556,479
11557,183
11558,180
11559,101
11560,230
11561,179
11562,176
11563,625
11564,52
11565,200
11566,221
11567,165
11568,112
11569,87
11570,711
11571,630
11572,245
11573,71
11574,789
11575,143
11576,239
11577,614
11578,107
11579,208
11580,175
11581,278
11582,163
11583,782
11584,230
11585,105
11586,711
11587,323
11588,183
11589,149
11590,155
11591,135
11592,200
11593,204
11594,301
11595,206
11596,105
11597,254
11598,101
11599,216
11600,69
11601,181
11602,287
11603,143
11604,784
11605,208
11606,254
11607,132
11608,235
11609,146
11610,165
11611,105
11612,214
11613,142
11614,410
11615,267
11616,250
11617,204
11618,61
11619,190
11620,169
11621,163
11622,78
11623,251
11624,250
11625,114
11626,155
11627,129
11628,235
11629,630
11630,173
11631,213
11632,85
11633,186
11634,179
11635,164
11636,209
11637,33
11638,209
11639,113
11640,164
11641,213
11642,741
11643,220
11644,20
11645,30
11646,71
11647,782
11648,71
11649,672
11650,200
11651,667
11652,190
11653,179
11654,131
11655,155
11656,116
11657,216
11658,222
11659,114
11660,54
11661,67
11662,217
11663,784
11664,536
11665,63
11666,123
11667,179
11668,528
11669,177
11670,179
11671,479
11672,135
11673,30
11674,58
11675,17
11676,412
11677,6
11678,250
11679,165
11680,225
11681,246
11682,183
11683,190
11684,236
11685,625
11686,667
11687,118
11688,196
11689,268
11690,196
11691,625
11692,214
11693,107
11694,206
11695,719
11696,208
11697,722
11698,287
11699,149
11700,163
11701,225
11702,614
11703,114
11704,245
11705,109
11706,260
11707,231
11708,196
11709,195
11710,60
11711,155
11712,190
11713,155
11714,209
11715,412
11716,200
11717,251
11718,294
11719,71
11720,630
11721,157
11722,251
11723,236
11724,176
11725,209
11726,479
11727,143
11728,122
11729,572
11730,131
11731,137
11732,195
11733,672
11734,33
11735,667
11736,413
11737,58
11738,162
11739,52
11740,633
11741,782
11742,175
11743,625
11744,250
11745,209
11746,149
11747,200
11748,164
11749,171
11750,122
11751,169
11752,672
11753,784
11754,239
11755,58
11756,672
11757,196
11758,195
11759,363
11760,536
11761,79
11762,214
11763,165
11764,254
11765,101
11766,784
11767,85
11768,87
11769,225
11770,69
11771,176
11772,438
11773,672
11774,209
11775,217
11776,599
11777,479
11778,246
11779,109
11780,222
11781,231
11782,236
11783,206
11784,672
11785,363
11786,196
11787,244
11788,158
11789,448
11790,27
11791,156
11792,163
11793,221
11794,135
11795,221
11796,246
11797,129
11798,55
11799,711
11800,118
11801,6
11802,213
11803,672
11804,49
11805,79
11806,236
11807,114
11808,287
11809,230
11810,235
11811,254
11812,63
11813,110
11814,104
11815,114
11816,230
11817,133
11818,30
11819,72
11820,214
11821,630
11822,195
11823,101
11824,222
11825,149
11826,528
11827,47
11828,515
11829,111
11830,177
11831,667
11832,672
11833,294
11834,63
11835,410
11836,170
11837,214
11838,287
11839,216
11840,149
11841,209
11842,506
11843,198
11844,72
11845,572
11846,204
11847,124
11848,104
11849,236
11850,719
11851,209
11852,278
11853,217
11854,114
11855,176
11856,47
11857,236
11858,230
11859,630
11860,78
11861,160
11862,519
11863,196
11864,410
11865,741
11866,633
11867,572
11868,176
11869,667
11870,630
11871,254
11872,614
11873,107
11874,208
11875,268
11876,220
11877,614
11878,142
11879,196
11880,105
11881,180
11882,220
11883,216
11884,219
11885,200
11886,549
11887,221
11888,71
11889,220
11890,519
11891,220
11892,11
11893,519
11894,208
11895,515
11896,111
11897,614
11898,132
11899,114
11900,182
11901,63
11902,175
11903,672
11904,114
11905,131
11906,519
11907,107
11908,221
11909,614
11910,183
11911,236
11912,233
11913,137
11914,169
11915,180
11916,69
11917,216
11918,72
11919,183
11920,61
11921,33
11922,268
11923,246
11924,5
11925,200
11926,155
11927,71
11928,741
11929,214
11930,179
11931,155
11932,519
11933,506
11934,223
11935,108
11936,173
11937,49
11938,216
11939,67
11940,301
11941,722
11942,171
11943,107
11944,789
11945,78
11946,572
11947,175
11948,363
11949,27
11950,101
11951,459
11952,105
11953,711
11954,519
11955,114
11956,83
11957,169
11958,144
11959,220
11960,630
11961,114
11962,711
11963,55
11964,126
11965,72
11966,235
11967,196
11968,176
11969,79
11970,181
11971,506
11972,205
11973,208
11974,231
11975,267
11976,230
11977,782
11978,741
11979,58
11980,183
11981,163
11982,160
11983,85
11984,667
11985,129
11986,242
11987,204
11988,217
11989,599
11990,672
11991,112
11992,260
11993,222
11994,220
11995,301
11996,6
11997,722
11998,122
11999,6
12000,208
12001,114
12002,672
12003,223
12004,208
12005,549
12006,71
12007,711
12008,230
12009,625
12010,711
12011,137
12012,203
12013,107
12014,135
12015,239
12016,170
12017,722
12018,219
12019,780
12020,198
12021,236
12022,250
12023,58
12024,230
12025,71
12026,672
12027,203
12028,20
12029,782
12030,52
12031,722
12032,175
12033,165
12034,206
12035,176
12036,79
12037,506
12038,214
12039,784
12040,71
12041,206
12042,177
12043,519
12044,187
12045,741
12046,780
12047,267
12048,200
12049,197
12050,170
12051,223
12052,217
12053,111
12054,230
12055,176
12056,784
12057,88
12058,67
12059,67
12060,71
12061,105
12062,223
12063,250
12064,88
12065,197
12066,143
12067,248
12068,479
12069,214
12070,506
12071,220
12072,515
12073,438
12074,217
12075,614
12076,142
12077,105
12078,236
12079,784
12080,47
12081,287
12082,519
12083,456
12084,114
12085,143
12086,60
12087,214
12088,208
12089,107
12090,784
12091,630
12092,58
12093,246
12094,60
12095,410
12096,479
12097,294
12098,143
12099,217
12100,220
12101,213
12102,536
12103,79
12104,155
12105,506
12106,135
12107,263
12108,111
12109,784
12110,195
12111,88
12112,132
12113,363
12114,143
12115,67
12116,28
12117,179
12118,84
12119,79
12120,186
12121,155
12122,84
12123,197
12124,263
12125,221
12126,163
12127,114
12128,180
12129,155
12130,519
12131,158
12132,287
12133,217
12134,30
12135,784
12136,156
12137,165
12138,287
12139,221
12140,722
12141,12
12142,221
12143,58
12144,149
12145,235
12146,515
12147,71
12148,173
12149,49
12150,58
12151,250
12152,214
12153,479
12154,213
12155,63
12156,217
12157,206
12158,121
12159,54
12160,230
12161,214
12162,149
12163,6
12164,69
12165,28
12166,233
12167,200
12168,672
12169,164
12170,528
12171,88
12172,71
12173,667
12174,148
12175,71
12176,209
12177,165
12178,216
12179,60
12180,104
12181,5
12182,143
12183,63
12184,186
12185,246
12186,79
12187,60
12188,88
12189,782
12190,149
12191,204
12192,260
12193,216
12194,208
12195,6
12196,87
12197,109
12198,63
12199,175
12200,251
12201,599
12202,204
12203,177
12204,722
12205,251
12206,60
12207,222
12208,58
12209,137
12210,101
12211,784
12212,198
12213,456
12214,183
12215,137
12216,257
12217,176
12218,143
12219,267
12220,264
12221,412
12222,782
12223,287
12224,85
12225,179
12226,614
12227,213
12228,84
12229,85
12230,63
12231,189
12232,67
12233,268
12234,741
12235,149
12236,6
12237,245
12238,209
12239,209
12240,6
12241,479
12242,217
12243,58
12244,179
12245,217
12246,67
12247,711
12248,30
12249,129
12250,114
12251,114
12252,208
12253,27
12254,155
12255,176
12256,323
12257,528
12258,614
12259,204
12260,257
12261,149
12262,169
12263,239
12264,301
12265,118
12266,63
12267,741
12268,27
12269,197
12270,268
12271,630
12272,71
12273,251
12274,711
12275,225
12276,142
12277,163
12278,626
12279,157
12280,69
12281,209
12282,58
12283,183
12284,789
12285,176
12286,246
12287,741
12288,156
12289,278
12290,287
12291,633
12292,163
12293,784
12294,124
12295,164
12296,630
12297,107
12298,175
12299,6
12300,219
12301,260
12302,278
12303,69
12304,31
12305,146
12306,672
12307,722
12308,528
12309,236
12310,163
12311,479
12312,112
12313,196
12314,208
12315,196
12316,110
12317,71
12318,268
12319,287
12320,519
12321,179
12322,17
12323,479
12324,259
12325,549
12326,780
12327,122
12328,190
12329,63
12330,104
12331,225
12332,213
12333,222
12334,27
12335,114
12336,69
12337,87
12338,158
12339,84
12340,711
12341,220
12342,410
12343,241
12344,245
12345,287
12346,301
12347,109
12348,13
12349,221
12350,220
12351,179
12352,448
12353,196
12354,129
12355,599
12356,213
12357,528
12358,572
12359,599
12360,216
12361,144
12362,101
12363,672
12364,254
12365,519
12366,187
12367,116
12368,667
12369,183
12370,27
12371,268
12372,260
12373,715
12374,164
12375,181
12376,213
12377,101
12378,98
12379,268
12380,250
12381,114
12382,410
12383,230
12384,176
12385,251
12386,719
12387,287
12388,222
12389,177
12390,195
12391,251
12392,203
12393,79
12394,126
12395,198
12396,741
12397,61
12398,667
12399,135
12400,137
12401,179
12402,58
12403,169
12404,209
12405,213
12406,196
12407,107
12408,58
12409,126
12410,87
12411,630
12412,625
12413,267
12414,206
12415,121
12416,263
12417,259
12418,267
12419,213
12420,137
12421,182
12422,180
12423,49
12424,625
12425,58
12426,155
12427,294
12428,223
12429,17
12430,780
12431,30
12432,572
12433,175
12434,248
12435,47
12436,195
12437,78
12438,614
12439,171
12440,519
12441,69
12442,301
12443,260
12444,722
12445,171
12446,183
12447,176
12448,6
12449,114
12450,625
12451,222
12452,715
12453,122
12454,412
12455,179
12456,741
12457,116
12458,789
12459,549
12460,784
12461,363
12462,599
12463,220
12464,301
12465,197
12466,230
12467,58
12468,246
12469,155
12470,208
12471,71
12472,633
12473,163
12474,672
12475,667
12476,107
12477,268
12478,88
12479,784
12480,259
12481,711
12482,219
12483,254
12484,209
12485,203
12486,47
12487,55
12488,206
12489,213
12490,101
12491,179
12492,626
12493,54
12494,213
12495,133
12496,208
12497,6
12498,536
12499,230
12500,186
12501,208
12502,124
12503,122
12504,196
12505,155
12506,672
12507,780
12508,208
12509,176
12510,69
12511,63
12512,69
12513,171
12514,722
12515,69
12516,71
12517,246
12518,137
12519,55
12520,599
12521,114
12522,183
12523,630
12524,722
12525,58
12526,189
12527,71
12528,519
12529,782
12530,104
12531,204
12532,196
12533,186
12534,363
12535,789
12536,630
12537,143
12538,132
12539,203
12540,287
12541,287
12542,722
12543,85
12544,667
12545,155
12546,137
12547,112
12548,301
12549,163
12550,189
12551,236
12552,242
12553,88
12554,479
12555,186
12556,114
12557,209
12558,27
12559,131
12560,186
12561,410
12562,214
12563,118
12564,741
12565,260
12566,268
12567,173
12568,205
12569,220
12570,241
12571,722
12572,741
12573,233
12574,672
12575,54
12576,197
12577,173
12578,257
12579,216
12580,214
12581,30
12582,6
12583,251
12584,112
12585,132
12586,625
12587,131
12588,196
12589,599
12590,323
12591,536
12592,137
12593,241
12594,536
12595,248
12596,519
12597,268
12598,195
12599,213
12600,58
12601,156
12602,213
12603,287
12604,31
12605,260
12606,169
12607,222
12608,169
12609,149
12610,250
12611,722
12612,572
12613,323
12614,171
12615,236
12616,187
12617,142
12618,104
12619,506
12620,719
12621,71
12622,219
12623,242
12624,142
12625,63
12626,225
12627,157
12628,614
12629,132
12630,780
12631,230
12632,143
12633,135
12634,220
12635,195
12636,58
12637,20
12638,221
12639,54
12640,251
12641,536
12642,223
12643,176
12644,572
12645,126
12646,181
12647,107
12648,672
12649,625
12650,216
12651,630
12652,214
12653,211
12654,614
12655,231
12656,519
12657,170
12658,264
12659,225
12660,54
12661,536
12662,104
12663,104
12664,784
12665,515
12666,323
12667,198
12668,208
12669,233
12670,259
12671,195
12672,71
12673,301
12674,169
12675,287
12676,536
12677,250
12678,132
12679,60
12680,528
12681,80
12682,219
12683,165
12684,110
12685,784
12686,155
12687,143
12688,58
12689,630
12690,196
12691,67
12692,124
12693,182
12694,268
12695,164
12696,179
12697,6
12698,219
12699,112
12700,142
12701,197
12702,208
12703,241
12704,164
12705,722
12706,196
12707,363
12708,223
12709,715
12710,287
12711,203
12712,225
12713,239
12714,572
12715,170
12716,782
12717,163
12718,711
12719,220
12720,245
12721,251
12722,114
12723,203
12724,448
12725,599
12726,780
12727,84
12728,626
12729,294
12730,30
12731,225
12732,263
12733,251
12734,225
12735,60
12736,104
12737,195
12738,78
12739,20
12740,784
12741,549
12742,132
12743,179
12744,287
12745,114
12746,157
12747,135
12748,672
12749,179
12750,410
12751,233
12752,27
12753,250
12754,142
12755,52
12756,183
12757,55
12758,163
12759,260
12760,208
12761,79
12762,633
12763,479
12764,169
12765,263
12766,196
12767,71
12768,160
12769,109
12770,162
12771,144
12772,105
12773,190
12774,88
12775,121
12776,177
12777,126
12778,235
12779,204
12780,254
12781,6
12782,246
12783,784
12784,111
12785,122
12786,58
12787,176
12788,60
12789,209
12790,132
12791,190
12792,479
12793,169
12794,71
12795,122
12796,179
12797,69
12798,47
12799,110
12800,239
12801,156
12802,230
12803,630
12804,254
12805,722
12806,536
12807,186
12808,183
12809,572
12810,63
12811,506
12812,6
12813,301
12814,410
12815,33
12816,121
12817,287
12818,105
12819,782
12820,448
12821,260
12822,278
12823,155
12824,204
12825,260
12826,61
12827,122
12828,230
12829,301
12830,479
12831,626
12832,242
12833,251
12834,780
12835,88
12836,206
12837,231
12838,173
12839,456
12840,231
12841,129
12842,363
12843,219
12844,363
12845,223
12846,209
12847,14
12848,163
12849,236
12850,294
12851,107
12852,782
12853,186
12854,263
12855,625
12856,672
12857,459
12858,231
12859,135
12860,242
12861,626
12862,251
12863,519
12864,236
12865,672
12866,157
12867,241
12868,122
12869,250
12870,78
12871,171
12872,129
12873,15
12874,47
12875,183
12876,101
12877,182
12878,179
12879,170
12880,363
12881,741
12882,179
12883,69
12884,88
12885,79
12886,230
12887,129
12888,213
12889,186
12890,63
12891,782
12892,177
12893,599
12894,741
12895,190
12896,88
12897,60
12898,163
12899,260
12900,179
12901,250
12902,205
12903,83
12904,49
12905,58
12906,79
12907,47
12908,199
12909,183
12910,784
12911,126
12912,112
12913,536
12914,67
12915,30
12916,221
12917,251
12918,49
12919,233
12920,711
12921,107
12922,126
12923,784
12924,214
12925,363
12926,410
12927,264
12928,268
12929,79
12930,248
12931,58
12932,230
12933,107
12934,189
12935,519
12936,6
12937,129
12938,179
12939,135
12940,599
12941,132
12942,209
12943,614
12944,6
12945,323
12946,784
12947,132
12948,112
12949,287
12950,144
12951,20
12952,84
12953,107
12954,133
12955,287
12956,197
12957,572
12958,479
12959,239
12960,287
12961,231
12962,137
12963,323
12964,196
12965,363
12966,182
12967,251
12968,182
12969,132
12970,200
12971,177
12972,27
12973,519
12974,251
12975,72
12976,287
12977,278
12978,438
12979,203
12980,122
12981,131
12982,242
12983,225
12984,20
12985,54
12986,438
12987,236
12988,549
12989,58
12990,209
12991,78
12992,144
12993,715
12994,20
12995,58
12996,49
12997,250
12998,67
12999,6
13000,549
13001,625
13002,179
13003,294
13004,143
13005,157
13006,162
13007,47
13008,149
13009,122
13010,410
13011,124
13012,190
13013,225
13014,160
13015,287
13016,711
13017,241
13018,241
13019,52
13020,667
13021,129
13022,630
13023,173
13024,137
13025,211
13026,132
13027,536
13028,506
13029,175
13030,784
13031,6
13032,71
13033,105
13034,217
13035,214
13036,132
13037,129
13038,506
13039,146
13040,43
13041,209
13042,789
13043,268
13044,213
13045,221
13046,63
13047,248
13048,251
13049,219
13050,182
13051,246
13052,71
13053,254
13054,30
13055,30
13056,248
13057,236
13058,301
13059,186
13060,200
13061,225
13062,572
13063,60
13064,129
13065,209
13066,110
13067,87
13068,113
13069,549
13070,63
13071,144
13072,149
13073,711
13074,60
13075,171
13076,208
13077,479
13078,221
13079,519
13080,206
13081,27
13082,83
13083,177
13084,222
13085,216
13086,163
13087,112
13088,780
13089,506
13090,144
13091,233
13092,536
13093,176
13094,169
13095,780
13096,160
13097,84
13098,242
13099,222
13100,122
13101,242
13102,506
13103,183
13104,206
13105,58
13106,722
13107,363
13108,198
13109,672
13110,263
13111,301
13112,124
13113,254
13114,196
13115,179
13116,71
13117,79
13118,220
13119,129
13120,155
13121,72
13122,206
13123,69
13124,205
13125,715
13126,169
13127,121
13128,186
13129,225
13130,71
13131,268
13132,230
13133,156
13134,195
13135,287
13136,278
13137,195
13138,780
13139,236
13140,84
13141,572
13142,132
13143,144
13144,456
13145,245
13146,189
13147,132
13148,113
13149,47
13150,61
13151,132
13152,28
13153,225
13154,179
13155,196
13156,104
13157,711
13158,323
13159,213
13160,165
13161,195
13162,163
13163,112
13164,157
13165,157
13166,251
13167,528
13168,177
13169,241
13170,27
13171,217
13172,216
13173,221
13174,54
13175,221
13176,183
13177,177
13178,225
13179,456
13180,251
13181,163
13182,230
13183,506
13184,58
13185,67
13186,175
13187,155
13188,179
13189,238
13190,250
13191,144
13192,72
13193,54
13194,254
13195,263
13196,208
13197,208
13198,217
13199,190
13200,186
13201,6
13202,122
13203,171
13204,214
13205,60
13206,456
13207,163
13208,126
13209,198
13210,52
13211,248
13212,294
13213,52
13214,519
13215,630
13216,528
13217,58
13218,183
13219,287
13220,413
13221,105
13222,413
13223,113
13224,110
13225,572
13226,246
13227,260
13228,782
13229,208
13230,219
13231,780
13232,217
13233,28
13234,268
13235,412
13236,242
13237,179
13238,741
13239,169
13240,572
13241,170
13242,219
13243,208
13244,780
13245,214
13246,107
13247,216
13248,245
13249,5
13250,197
13251,105
13252,254
13253,264
13254,363
13255,137
13256,204
13257,204
13258,784
13259,251
13260,30
13261,711
13262,79
13263,245
13264,137
13265,519
13266,150
13267,479
13268,88
13269,599
13270,410
13271,506
13272,105
13273,177
13274,217
13275,784
13276,711
13277,104
13278,209
13279,55
13280,124
13281,456
13282,30
13283,278
13284,223
13285,536
13286,88
13287,251
13288,155
13289,60
13290,220
13291,190
13292,189
13293,114
13294,196
13295,58
13296,183
13297,323
13298,248
13299,177
13300,633
13301,27
13302,722
13303,129
13304,223
13305,223
13306,741
13307,124
13308,208
13309,162
13310,254
13311,323
13312,52
13313,88
13314,242
13315,413
13316,287
13317,250
13318,177
13319,30
13320,78
13321,155
13322,213
13323,515
13324,165
13325,183
13326,614
13327,149
13328,231
13329,58
13330,63
13331,156
13332,217
13333,98
13334,60
13335,536
13336,599
13337,242
13338,107
13339,71
13340,413
13341,200
13342,456
13343,672
13344,216
13345,222
13346,251
13347,784
13348,287
13349,244
13350,71
13351,132
13352,528
13353,225
13354,221
13355,84
13356,69
13357,233
13358,719
13359,209
13360,181
13361,672
13362,157
13363,633
13364,129
13365,171
13366,160
13367,196
13368,190
13369,268
13370,217
13371,715
13372,104
13373,667
13374,195
13375,614
13376,132
13377,200
13378,235
13379,187
13380,238
13381,180
13382,208
13383,85
13384,630
13385,27
13386,118
13387,30
13388,722
13389,156
13390,177
13391,217
13392,248
